Date,Low,Open,Volume,High,Close,Adjusted Close
17-03-1980,1.6796879768371582,0.0,164800,1.75,1.6875,0.5723941922187805
18-03-1980,1.6328129768371582,0.0,188800,1.6875,1.65625,0.5617942810058594
19-03-1980,1.6640629768371582,0.0,84800,1.6875,1.6796879768371582,0.5697440505027771
20-03-1980,1.6484379768371582,0.0,328000,1.6875,1.6875,0.5723941922187805
21-03-1980,1.6640629768371582,0.0,249600,1.6796879768371582,1.6640629768371582,0.5644444823265076
24-03-1980,1.640625,0.0,142400,1.6796879768371582,1.6796879768371582,0.5697440505027771
25-03-1980,1.6640629768371582,0.0,249600,1.6875,1.6640629768371582,0.5644444823265076
26-03-1980,1.6484379768371582,0.0,228800,1.6875,1.65625,0.5617942810058594
27-03-1980,1.640625,0.0,268800,1.65625,1.6484379768371582,0.5591444969177246
28-03-1980,1.6484379768371582,0.0,132800,1.671875,1.65625,0.5617942810058594
31-03-1980,1.671875,0.0,363200,1.796875,1.796875,0.6094934940338135
01-04-1980,1.75,0.0,276800,1.8046879768371582,1.765625,0.5988938212394714
02-04-1980,1.7109379768371582,0.0,86400,1.765625,1.7109379768371582,0.5803443193435669
03-04-1980,1.6953129768371582,0.0,156800,1.7265629768371582,1.71875,0.5829938054084778
07-04-1980,1.6875,0.0,195200,1.71875,1.6953129768371582,0.5750442743301392
08-04-1980,1.6875,0.0,414400,1.71875,1.7109379768371582,0.5803443193435669
09-04-1980,1.6796879768371582,0.0,432000,1.7109379768371582,1.6875,0.5723941922187805
10-04-1980,1.6796879768371582,0.0,544000,1.703125,1.6875,0.5723941922187805
11-04-1980,1.6953129768371582,0.0,372800,1.734375,1.734375,0.5882939696311951
14-04-1980,1.7265629768371582,0.0,107200,1.75,1.734375,0.5882939696311951
15-04-1980,1.7265629768371582,0.0,110400,1.75,1.7265629768371582,0.5856446027755737
16-04-1980,1.734375,0.0,316800,1.75,1.734375,0.5882939696311951
17-04-1980,1.734375,0.0,108800,1.75,1.734375,0.5882939696311951
18-04-1980,1.734375,0.0,96000,1.75,1.7421879768371582,0.590944230556488
21-04-1980,1.734375,0.0,128000,1.7421879768371582,1.734375,0.5882939696311951
22-04-1980,1.7265629768371582,0.0,99200,1.765625,1.765625,0.5988938212394714
23-04-1980,1.765625,0.0,123200,1.796875,1.765625,0.5988938212394714
24-04-1980,1.78125,0.0,152000,1.8125,1.7890629768371582,0.606843888759613
25-04-1980,1.7734379768371582,0.0,67200,1.8125,1.8046879768371582,0.612143874168396
28-04-1980,1.765625,0.0,361600,1.8046879768371582,1.78125,0.6041937470436096
29-04-1980,1.7890629768371582,0.0,164800,1.8359379768371582,1.8125,0.6147934794425964
30-04-1980,1.796875,0.0,152000,1.84375,1.8359379768371582,0.622743546962738
01-05-1980,1.8203129768371582,0.0,312000,1.8671879768371582,1.859375,0.6306934952735901
02-05-1980,1.875,0.0,476800,1.953125,1.9453129768371582,0.6598430871963501
05-05-1980,1.90625,0.0,828800,1.9296879768371582,1.9296879768371582,0.6545430421829224
06-05-1980,1.8828129768371582,0.0,216000,1.90625,1.8828129768371582,0.6386434435844421
07-05-1980,1.8671879768371582,0.0,209600,1.90625,1.890625,0.641293466091156
08-05-1980,1.8984379768371582,0.0,158400,1.9140629768371582,1.8984379768371582,0.6439434289932251
09-05-1980,1.8671879768371582,0.0,129600,1.8984379768371582,1.8671879768371582,0.6333437561988831
12-05-1980,1.8671879768371582,0.0,190400,1.875,1.8671879768371582,0.6333437561988831
13-05-1980,1.859375,0.0,70400,1.875,1.875,0.6359936594963074
14-05-1980,1.859375,0.0,129600,1.875,1.875,0.6359936594963074
15-05-1980,1.8125,0.0,240000,1.875,1.859375,0.6306934952735901
16-05-1980,1.765625,0.0,120000,1.84375,1.765625,0.5988938212394714
19-05-1980,1.765625,0.0,148800,1.7890629768371582,1.7890629768371582,0.606843888759613
20-05-1980,1.7890629768371582,0.0,158400,1.8359379768371582,1.8359379768371582,0.622743546962738
21-05-1980,1.8203129768371582,0.0,532800,1.8671879768371582,1.8359379768371582,0.622743546962738
22-05-1980,1.796875,0.0,571200,1.828125,1.828125,0.6200936436653137
23-05-1980,1.796875,0.0,224000,1.828125,1.828125,0.6200936436653137
27-05-1980,1.8125,0.0,316800,1.8671879768371582,1.828125,0.6200936436653137
28-05-1980,1.8359379768371582,0.0,542400,1.8671879768371582,1.8671879768371582,0.6333437561988831
29-05-1980,1.8515629768371582,0.0,187200,1.875,1.8515629768371582,0.6280438303947449
30-05-1980,1.84375,0.0,227200,1.890625,1.890625,0.641293466091156
02-06-1980,1.875,0.0,192000,1.90625,1.890625,0.641293466091156
03-06-1980,1.90625,0.0,320000,1.953125,1.921875,0.6518933773040771
04-06-1980,1.921875,0.0,123200,1.953125,1.9296879768371582,0.6545430421829224
05-06-1980,1.9375,0.0,467200,2.0,1.96875,0.6677932739257812
06-06-1980,1.9375,0.0,120000,1.96875,1.9375,0.6571930050849915
09-06-1980,1.9296879768371582,0.0,83200,1.953125,1.9375,0.6571930050849915
10-06-1980,1.953125,0.0,203200,1.9921879768371582,1.9921879768371582,0.6757431626319885
11-06-1980,1.9765629768371582,0.0,70400,1.9921879768371582,1.9921879768371582,0.6757431626319885
12-06-1980,1.9609379768371582,0.0,128000,1.984375,1.96875,0.6677932739257812
13-06-1980,1.953125,0.0,176000,1.984375,1.984375,0.6730931401252747
16-06-1980,1.953125,0.0,251200,1.984375,1.9765629768371582,0.6704432368278503
17-06-1980,1.953125,0.0,155200,1.9765629768371582,1.953125,0.6624932289123535
18-06-1980,1.9453129768371582,0.0,147200,1.9609379768371582,1.9609379768371582,0.6651431918144226
19-06-1980,1.9375,0.0,187200,1.9609379768371582,1.9375,0.6571930050849915
20-06-1980,1.9375,0.0,300800,1.9609379768371582,1.953125,0.6624932289123535
23-06-1980,1.9375,0.0,128000,1.953125,1.9375,0.6571930050849915
24-06-1980,1.9375,0.0,452800,1.953125,1.9375,0.6571930050849915
25-06-1980,1.9375,0.0,142400,1.9609379768371582,1.9609379768371582,0.6651431918144226
26-06-1980,1.9296879768371582,0.0,152000,1.953125,1.9375,0.6571930050849915
27-06-1980,1.9296879768371582,0.0,737600,1.9375,1.9375,0.6571930050849915
30-06-1980,1.84375,0.0,265600,1.9375,1.875,0.6359936594963074
01-07-1980,1.84375,0.0,1777600,1.890625,1.890625,0.641293466091156
02-07-1980,1.875,0.0,489600,1.890625,1.8828129768371582,0.6386434435844421
03-07-1980,1.890625,0.0,136000,1.921875,1.8984379768371582,0.6439434289932251
07-07-1980,1.9140629768371582,0.0,193600,1.9375,1.921875,0.6518933773040771
08-07-1980,1.9375,0.0,206400,1.953125,1.953125,0.6624932289123535
09-07-1980,1.9375,0.0,321600,1.9921879768371582,1.9921879768371582,0.6757431626319885
10-07-1980,1.96875,0.0,627200,2.023437976837158,2.0,0.6783932447433472
11-07-1980,1.984375,0.0,158400,2.015625,2.015625,0.6836929321289062
14-07-1980,2.0,0.0,190400,2.054687976837158,2.054687976837158,0.6969428062438965
15-07-1980,2.046875,0.0,291200,2.078125,2.070312976837158,0.7022430300712585
16-07-1980,2.046875,0.0,859200,2.070312976837158,2.070312976837158,0.7022430300712585
17-07-1980,2.0625,0.0,480000,2.085937976837158,2.078125,0.704892635345459
18-07-1980,2.070312976837158,0.0,652800,2.148437976837158,2.132812976837158,0.723442792892456
21-07-1980,2.132812976837158,0.0,268800,2.15625,2.15625,0.7313919067382812
22-07-1980,2.148437976837158,0.0,350400,2.171875,2.148437976837158,0.7287431359291077
23-07-1980,2.125,0.0,280000,2.15625,2.125,0.720792829990387
24-07-1980,2.125,0.0,332800,2.140625,2.140625,0.7260923981666565
25-07-1980,2.125,0.0,121600,2.140625,2.132812976837158,0.723442792892456
28-07-1980,2.125,0.0,355200,2.140625,2.140625,0.7260923981666565
29-07-1980,2.132812976837158,0.0,188800,2.171875,2.171875,0.7366923689842224
30-07-1980,2.1875,0.0,1552000,2.195312976837158,2.195312976837158,0.7446426153182983
31-07-1980,2.1875,0.0,1233600,2.210937976837158,2.210937976837158,0.749942421913147
01-08-1980,2.21875,0.0,305600,2.234375,2.226562976837158,0.7552424669265747
04-08-1980,2.21875,0.0,1603200,2.273437976837158,2.273437976837158,0.7711419463157654
05-08-1980,2.226562976837158,0.0,1168000,2.265625,2.25,0.7631927728652954
06-08-1980,2.242187976837158,0.0,254400,2.289062976837158,2.289062976837158,0.776442289352417
07-08-1980,2.25,0.0,276800,2.273437976837158,2.257812976837158,0.765842080116272
08-08-1980,2.257812976837158,0.0,598400,2.28125,2.273437976837158,0.7711419463157654
11-08-1980,2.25,0.0,259200,2.257812976837158,2.257812976837158,0.765842080116272
12-08-1980,2.25,0.0,1137600,2.3125,2.273437976837158,0.7711419463157654
13-08-1980,2.257812976837158,0.0,140800,2.296875,2.265625,0.7684925198554993
14-08-1980,2.25,0.0,126400,2.265625,2.265625,0.7684925198554993
15-08-1980,2.257812976837158,0.0,195200,2.289062976837158,2.257812976837158,0.765842080116272
18-08-1980,2.203125,0.0,299200,2.25,2.203125,0.7472923398017883
19-08-1980,2.171875,0.0,622400,2.203125,2.179687976837158,0.7393423318862915
20-08-1980,2.148437976837158,0.0,259200,2.195312976837158,2.195312976837158,0.7446426153182983
21-08-1980,2.25,0.0,745600,2.28125,2.265625,0.7684925198554993
22-08-1980,2.257812976837158,0.0,195200,2.28125,2.265625,0.7684925198554993
25-08-1980,2.25,0.0,91200,2.265625,2.25,0.7631927728652954
26-08-1980,2.25,0.0,254400,2.28125,2.265625,0.7684925198554993
27-08-1980,2.21875,0.0,336000,2.257812976837158,2.21875,0.7525918483734131
28-08-1980,2.171875,0.0,212800,2.203125,2.171875,0.7366923689842224
29-08-1980,2.15625,0.0,740800,2.1875,2.171875,0.7366923689842224
02-09-1980,2.171875,0.0,155200,2.195312976837158,2.1875,0.7419921159744263
03-09-1980,2.171875,0.0,1081600,2.265625,2.25,0.7631927728652954
04-09-1980,2.234375,0.0,416000,2.273437976837158,2.25,0.7631927728652954
05-09-1980,2.234375,0.0,731200,2.257812976837158,2.257812976837158,0.765842080116272
08-09-1980,2.242187976837158,0.0,100800,2.265625,2.242187976837158,0.7605419754981995
09-09-1980,2.234375,0.0,91200,2.242187976837158,2.242187976837158,0.7605419754981995
10-09-1980,2.234375,0.0,83200,2.242187976837158,2.234375,0.7578924298286438
11-09-1980,2.234375,0.0,60800,2.25,2.25,0.7631927728652954
12-09-1980,2.242187976837158,0.0,128000,2.265625,2.265625,0.7684925198554993
15-09-1980,2.25,0.0,236800,2.273437976837158,2.25,0.7631927728652954
16-09-1980,2.25,0.0,96000,2.265625,2.265625,0.7684925198554993
17-09-1980,2.25,0.0,1672000,2.335937976837158,2.328125,0.7896921038627625
18-09-1980,2.335937976837158,0.0,201600,2.367187976837158,2.34375,0.7949920892715454
19-09-1980,2.335937976837158,0.0,124800,2.351562976837158,2.34375,0.7949920892715454
22-09-1980,2.34375,0.0,264000,2.359375,2.351562976837158,0.7976420521736145
23-09-1980,2.335937976837158,0.0,488000,2.375,2.351562976837158,0.7976420521736145
24-09-1980,2.328125,0.0,148800,2.335937976837158,2.328125,0.7896921038627625
25-09-1980,2.296875,0.0,265600,2.328125,2.304687976837158,0.7817423939704895
26-09-1980,2.273437976837158,0.0,352000,2.304687976837158,2.289062976837158,0.776442289352417
29-09-1980,2.265625,0.0,428800,2.28125,2.28125,0.7737918496131897
30-09-1980,2.265625,0.0,124800,2.289062976837158,2.289062976837158,0.776442289352417
01-10-1980,2.257812976837158,0.0,100800,2.28125,2.257812976837158,0.765842080116272
02-10-1980,2.25,0.0,585600,2.273437976837158,2.273437976837158,0.7711419463157654
03-10-1980,2.265625,0.0,180800,2.289062976837158,2.28125,0.7737918496131897
06-10-1980,2.265625,0.0,121600,2.296875,2.265625,0.7684925198554993
07-10-1980,2.25,0.0,459200,2.265625,2.25,0.7631927728652954
08-10-1980,2.242187976837158,0.0,817600,2.28125,2.28125,0.7737918496131897
09-10-1980,2.25,0.0,443200,2.28125,2.265625,0.7684925198554993
10-10-1980,2.203125,0.0,796800,2.234375,2.226562976837158,0.7552424669265747
13-10-1980,2.210937976837158,0.0,97600,2.226562976837158,2.226562976837158,0.7552424669265747
14-10-1980,2.203125,0.0,224000,2.25,2.203125,0.7472923398017883
15-10-1980,2.1875,0.0,113600,2.203125,2.195312976837158,0.7446426153182983
16-10-1980,2.171875,0.0,425600,2.203125,2.1875,0.7419921159744263
17-10-1980,2.15625,0.0,300800,2.1875,2.1875,0.7419921159744263
20-10-1980,2.164062976837158,0.0,150400,2.1875,2.1875,0.7419921159744263
21-10-1980,2.1875,0.0,566400,2.25,2.25,0.7631927728652954
22-10-1980,2.210937976837158,0.0,172800,2.273437976837158,2.234375,0.7578924298286438
23-10-1980,2.234375,0.0,336000,2.265625,2.25,0.7631927728652954
24-10-1980,2.234375,0.0,168000,2.265625,2.265625,0.7684925198554993
27-10-1980,2.234375,0.0,521600,2.25,2.25,0.7631927728652954
28-10-1980,2.234375,0.0,376000,2.265625,2.257812976837158,0.765842080116272
29-10-1980,2.25,0.0,251200,2.265625,2.265625,0.7684925198554993
30-10-1980,2.257812976837158,0.0,156800,2.273437976837158,2.265625,0.7684925198554993
31-10-1980,2.25,0.0,243200,2.265625,2.265625,0.7684925198554993
03-11-1980,2.226562976837158,0.0,1062400,2.28125,2.28125,0.7737918496131897
05-11-1980,2.273437976837158,0.0,1062400,2.359375,2.28125,0.7737918496131897
06-11-1980,2.28125,0.0,531200,2.3125,2.296875,0.7790923714637756
07-11-1980,2.28125,0.0,579200,2.296875,2.28125,0.7737918496131897
10-11-1980,2.257812976837158,0.0,180800,2.28125,2.273437976837158,0.7711419463157654
11-11-1980,2.265625,0.0,867200,2.28125,2.265625,0.7684925198554993
12-11-1980,2.25,0.0,281600,2.28125,2.273437976837158,0.7711419463157654
13-11-1980,2.257812976837158,0.0,1980800,2.28125,2.273437976837158,0.7711419463157654
14-11-1980,2.273437976837158,0.0,702400,2.304687976837158,2.304687976837158,0.7817423939704895
17-11-1980,2.289062976837158,0.0,1176000,2.34375,2.328125,0.7896921038627625
18-11-1980,2.328125,0.0,164800,2.351562976837158,2.335937976837158,0.7923421859741211
19-11-1980,2.320312976837158,0.0,241600,2.367187976837158,2.359375,0.8002921342849731
20-11-1980,2.34375,0.0,377600,2.421875,2.398437976837158,0.8135420680046082
21-11-1980,2.3125,0.0,209600,2.398437976837158,2.359375,0.8002921342849731
24-11-1980,2.296875,0.0,243200,2.382812976837158,2.34375,0.7949920892715454
25-11-1980,2.296875,0.0,179200,2.351562976837158,2.3125,0.7843919396400452
26-11-1980,2.195312976837158,0.0,377600,2.265625,2.203125,0.7472923398017883
28-11-1980,2.171875,0.0,323200,2.203125,2.1875,0.7419921159744263
01-12-1980,2.179687976837158,0.0,152000,2.203125,2.1875,0.7419921159744263
02-12-1980,2.171875,0.0,244800,2.203125,2.203125,0.7472923398017883
03-12-1980,2.1875,0.0,182400,2.25,2.25,0.7631927728652954
04-12-1980,2.21875,0.0,643200,2.265625,2.25,0.7631927728652954
05-12-1980,2.234375,0.0,235200,2.25,2.242187976837158,0.7605419754981995
08-12-1980,2.1875,0.0,385600,2.21875,2.203125,0.7472923398017883
09-12-1980,2.1875,0.0,528000,2.203125,2.1875,0.7419921159744263
10-12-1980,2.1875,0.0,206400,2.234375,2.195312976837158,0.7446426153182983
11-12-1980,2.15625,0.0,456000,2.203125,2.15625,0.7313919067382812
12-12-1980,2.148437976837158,0.0,57600,2.171875,2.15625,0.7313919067382812
15-12-1980,2.117187976837158,0.0,472000,2.148437976837158,2.117187976837158,0.7181426882743835
16-12-1980,2.046875,0.0,131200,2.101562976837158,2.0625,0.6995927691459656
17-12-1980,2.070312976837158,0.0,276800,2.101562976837158,2.085937976837158,0.7075429558753967
18-12-1980,2.0625,0.0,168000,2.078125,2.070312976837158,0.7022430300712585
19-12-1980,2.0625,0.0,504000,2.140625,2.140625,0.7260923981666565
22-12-1980,2.125,0.0,384000,2.164062976837158,2.164062976837158,0.7340424060821533
23-12-1980,2.140625,0.0,184000,2.1875,2.15625,0.7313919067382812
24-12-1980,2.132812976837158,0.0,1203200,2.242187976837158,2.242187976837158,0.7605419754981995
26-12-1980,2.226562976837158,0.0,97600,2.265625,2.25,0.7631927728652954
29-12-1980,2.234375,0.0,324800,2.304687976837158,2.265625,0.7684925198554993
30-12-1980,2.234375,0.0,1240000,2.328125,2.328125,0.7896921038627625
31-12-1980,2.320312976837158,0.0,928000,2.546875,2.546875,0.8638908267021179
02-01-1981,2.5,0.0,483200,2.546875,2.546875,0.8638908267021179
05-01-1981,2.5,0.0,1252800,2.601562976837158,2.515625,0.8532910346984863
06-01-1981,2.40625,0.0,296000,2.5,2.421875,0.8214914202690125
07-01-1981,2.25,0.0,540800,2.375,2.359375,0.8002921342849731
08-01-1981,2.21875,0.0,680000,2.367187976837158,2.296875,0.7790923714637756
09-01-1981,2.289062976837158,0.0,1307200,2.398437976837158,2.398437976837158,0.8135420680046082
12-01-1981,2.4375,0.0,1108800,2.554687976837158,2.53125,0.8585912585258484
13-01-1981,2.5,0.0,276800,2.53125,2.515625,0.8532910346984863
14-01-1981,2.5,0.0,1025600,2.578125,2.523437976837158,0.8559409379959106
15-01-1981,2.5,0.0,310400,2.53125,2.515625,0.8532910346984863
16-01-1981,2.507812976837158,0.0,820800,2.640625,2.640625,0.8956902027130127
19-01-1981,2.578125,0.0,768000,2.65625,2.625,0.8903906345367432
20-01-1981,2.640625,0.0,822400,2.671875,2.664062976837158,0.9036407470703125
21-01-1981,2.625,0.0,2556800,2.703125,2.6875,0.9115907549858093
22-01-1981,2.609375,0.0,1601600,2.765625,2.640625,0.8956902027130127
23-01-1981,2.578125,0.0,1859200,2.640625,2.625,0.8903906345367432
26-01-1981,2.5625,0.0,329600,2.601562976837158,2.5625,0.8691912293434143
27-01-1981,2.5625,0.0,753600,2.59375,2.585937976837158,0.877140998840332
28-01-1981,2.578125,0.0,358400,2.648437976837158,2.625,0.8903906345367432
29-01-1981,2.625,0.0,262400,2.6875,2.65625,0.9009907841682434
30-01-1981,2.640625,0.0,358400,2.695312976837158,2.664062976837158,0.9036407470703125
02-02-1981,2.578125,0.0,187200,2.648437976837158,2.59375,0.8797913193702698
03-02-1981,2.578125,0.0,313600,2.640625,2.625,0.8903906345367432
04-02-1981,2.570312976837158,0.0,601600,2.65625,2.578125,0.8744912147521973
05-02-1981,2.570312976837158,0.0,201600,2.625,2.625,0.8903906345367432
06-02-1981,2.625,0.0,532800,2.71875,2.710937976837158,0.9195412397384644
09-02-1981,2.664062976837158,0.0,464000,2.71875,2.703125,0.9168910384178162
10-02-1981,2.6875,0.0,472000,2.71875,2.703125,0.9168910384178162
11-02-1981,2.65625,0.0,617600,2.703125,2.6875,0.9115907549858093
12-02-1981,2.625,0.0,196800,2.679687976837158,2.679687976837158,0.9089415073394775
13-02-1981,2.609375,0.0,156800,2.671875,2.640625,0.8956902027130127
17-02-1981,2.601562976837158,0.0,345600,2.65625,2.609375,0.8850905299186707
18-02-1981,2.5625,0.0,428800,2.640625,2.59375,0.8797913193702698
19-02-1981,2.53125,0.0,601600,2.59375,2.546875,0.8638908267021179
20-02-1981,2.539062976837158,0.0,329600,2.554687976837158,2.546875,0.8638908267021179
23-02-1981,2.546875,0.0,427200,2.585937976837158,2.585937976837158,0.877140998840332
24-02-1981,2.59375,0.0,334400,2.632812976837158,2.625,0.8903906345367432
25-02-1981,2.609375,0.0,4424000,2.9375,2.9375,0.9963895678520203
26-02-1981,2.875,0.0,5041600,3.09375,3.046875,1.0334893465042114
27-02-1981,2.992187976837158,0.0,3398400,3.15625,3.15625,1.0705890655517578
02-03-1981,3.140625,0.0,3272000,3.234375,3.210937976837158,1.0891387462615967
03-03-1981,3.09375,0.0,3803200,3.234375,3.148437976837158,1.0679398775100708
04-03-1981,3.0625,0.0,1982400,3.125,3.125,1.05998957157135
05-03-1981,2.984375,0.0,1225600,3.117187976837158,3.0,1.0175894498825073
06-03-1981,2.890625,0.0,1899200,3.039062976837158,3.03125,1.0281891822814941
09-03-1981,2.96875,0.0,712000,3.0625,3.0625,1.0387892723083496
10-03-1981,2.9375,0.0,497600,3.046875,2.960937976837158,1.0043398141860962
11-03-1981,2.914062976837158,0.0,1625600,2.984375,2.96875,1.0069897174835205
12-03-1981,2.9375,0.0,1329600,3.09375,3.078125,1.044089674949646
13-03-1981,3.09375,0.0,1672000,3.140625,3.125,1.05998957157135
16-03-1981,3.0625,0.0,566400,3.140625,3.109375,1.0546890497207642
17-03-1981,3.117187976837158,0.0,2062400,3.1875,3.164062976837158,1.0732394456863403
18-03-1981,3.125,0.0,1782400,3.296875,3.21875,1.0917890071868896
19-03-1981,3.171875,0.0,648000,3.265625,3.171875,1.0758888721466064
20-03-1981,3.15625,0.0,884800,3.25,3.195312976837158,1.083838939666748
23-03-1981,3.171875,0.0,368000,3.234375,3.21875,1.0917890071868896
24-03-1981,3.125,0.0,760000,3.25,3.179687976837158,1.078539252281189
25-03-1981,3.171875,0.0,6833600,3.492187976837158,3.453125,1.1712892055511475
26-03-1981,3.34375,0.0,2190400,3.46875,3.34375,1.1341884136199951
27-03-1981,3.328125,0.0,1571200,3.460937976837158,3.390625,1.150087833404541
30-03-1981,3.28125,0.0,1011200,3.398437976837158,3.28125,1.1129881143569946
31-03-1981,3.328125,0.0,1208000,3.398437976837158,3.382812976837158,1.1474391222000122
01-04-1981,3.335937976837158,0.0,1326400,3.4375,3.40625,1.1553875207901
02-04-1981,3.28125,0.0,723200,3.421875,3.359375,1.1394875049591064
03-04-1981,3.28125,0.0,817600,3.367187976837158,3.296875,1.1182886362075806
06-04-1981,3.3125,0.0,2217600,3.609375,3.609375,1.224287509918213
07-04-1981,3.515625,0.0,2635200,3.640625,3.546875,1.203087568283081
08-04-1981,3.46875,0.0,968000,3.585937976837158,3.484375,1.1818881034851074
09-04-1981,3.46875,0.0,2723200,3.5625,3.515625,1.1924878358840942
10-04-1981,3.46875,0.0,1227200,3.5625,3.5625,1.2083874940872192
13-04-1981,3.5625,0.0,1553600,3.609375,3.578125,1.2136873006820679
14-04-1981,3.484375,0.0,555200,3.5625,3.5,1.1871885061264038
15-04-1981,3.4375,0.0,665600,3.507812976837158,3.492187976837158,1.1845377683639526
16-04-1981,3.476562976837158,0.0,716800,3.523437976837158,3.523437976837158,1.1951382160186768
20-04-1981,3.492187976837158,0.0,400000,3.53125,3.515625,1.1924878358840942
21-04-1981,3.296875,0.0,1460800,3.523437976837158,3.296875,1.1182886362075806
22-04-1981,3.28125,0.0,824000,3.367187976837158,3.320312976837158,1.126238465309143
23-04-1981,3.3125,0.0,907200,3.421875,3.382812976837158,1.1474391222000122
24-04-1981,3.34375,0.0,995200,3.421875,3.40625,1.1553875207901
27-04-1981,3.375,0.0,1088000,3.453125,3.40625,1.1553875207901
28-04-1981,3.234375,0.0,592000,3.390625,3.289062976837158,1.1156387329101562
29-04-1981,3.15625,0.0,633600,3.25,3.179687976837158,1.078539252281189
30-04-1981,3.164062976837158,0.0,756800,3.210937976837158,3.1875,1.0811887979507446
01-05-1981,3.171875,0.0,1225600,3.296875,3.25,1.1023885011672974
04-05-1981,3.171875,0.0,536000,3.25,3.195312976837158,1.083838939666748
05-05-1981,3.09375,0.0,937600,3.140625,3.101562976837158,1.0520390272140503
06-05-1981,3.109375,0.0,716800,3.15625,3.117187976837158,1.0573395490646362
07-05-1981,3.109375,0.0,876800,3.203125,3.1875,1.0811887979507446
08-05-1981,3.164062976837158,0.0,827200,3.203125,3.1875,1.0811887979507446
11-05-1981,3.101562976837158,0.0,372800,3.210937976837158,3.101562976837158,1.0520390272140503
12-05-1981,3.0625,0.0,782400,3.109375,3.078125,1.044089674949646
13-05-1981,3.046875,0.0,374400,3.125,3.09375,1.0493886470794678
14-05-1981,3.078125,0.0,1054400,3.203125,3.125,1.05998957157135
15-05-1981,3.109375,0.0,748800,3.15625,3.140625,1.0652894973754883
18-05-1981,3.117187976837158,0.0,348800,3.148437976837158,3.132812976837158,1.062638759613037
19-05-1981,3.125,0.0,654400,3.203125,3.1875,1.0811887979507446
20-05-1981,3.203125,0.0,1464000,3.40625,3.398437976837158,1.1527385711669922
21-05-1981,3.320312976837158,0.0,801600,3.398437976837158,3.375,1.144788384437561
22-05-1981,3.296875,0.0,388800,3.367187976837158,3.328125,1.1288883686065674
26-05-1981,3.289062976837158,0.0,444800,3.328125,3.328125,1.1288883686065674
27-05-1981,3.265625,0.0,400000,3.359375,3.273437976837158,1.1103389263153076
28-05-1981,3.234375,0.0,273600,3.296875,3.234375,1.0970896482467651
29-05-1981,3.171875,0.0,212800,3.21875,3.203125,1.0864887237548828
01-06-1981,3.140625,0.0,1132800,3.242187976837158,3.140625,1.0652894973754883
02-06-1981,3.0,0.0,675200,3.125,3.0625,1.0387892723083496
03-06-1981,2.9375,0.0,411200,3.046875,2.960937976837158,1.0043398141860962
04-06-1981,2.945312976837158,0.0,344000,2.976562976837158,2.96875,1.0069897174835205
05-06-1981,2.921875,0.0,1054400,3.039062976837158,3.03125,1.0281891822814941
08-06-1981,3.015625,0.0,347200,3.078125,3.03125,1.0281891822814941
09-06-1981,3.0,0.0,750400,3.078125,3.046875,1.0334893465042114
10-06-1981,3.0,0.0,369600,3.085937976837158,3.0625,1.0387892723083496
11-06-1981,3.078125,0.0,139200,3.15625,3.15625,1.0705890655517578
12-06-1981,3.085937976837158,0.0,171200,3.140625,3.09375,1.0493886470794678
15-06-1981,3.078125,0.0,233600,3.140625,3.140625,1.0652894973754883
16-06-1981,3.101562976837158,0.0,150400,3.132812976837158,3.109375,1.0546890497207642
17-06-1981,3.054687976837158,0.0,256000,3.09375,3.078125,1.044089674949646
18-06-1981,3.007812976837158,0.0,185600,3.078125,3.015625,1.0228893756866455
19-06-1981,2.9375,0.0,196800,3.0,2.953125,1.0016900300979614
22-06-1981,2.9375,0.0,363200,2.984375,2.960937976837158,1.0043398141860962
23-06-1981,2.945312976837158,0.0,195200,2.992187976837158,2.96875,1.0069897174835205
24-06-1981,2.90625,0.0,224000,2.976562976837158,2.9375,0.9963895678520203
25-06-1981,2.921875,0.0,192000,2.960937976837158,2.9375,0.9963895678520203
26-06-1981,2.828125,0.0,332800,2.929687976837158,2.875,0.9751904010772705
29-06-1981,2.875,0.0,454400,2.921875,2.914062976837158,0.9884399771690369
30-06-1981,2.914062976837158,0.0,284800,2.960937976837158,2.9375,0.9963895678520203
01-07-1981,2.921875,0.0,190400,2.953125,2.945312976837158,0.9990395307540894
02-07-1981,2.921875,0.0,67200,2.953125,2.9375,0.9963895678520203
06-07-1981,2.890625,0.0,198400,2.929687976837158,2.90625,0.985789954662323
07-07-1981,2.796875,0.0,302400,2.898437976837158,2.804687976837158,0.9513400793075562
08-07-1981,2.742187976837158,0.0,870400,2.8125,2.765625,0.9380902647972107
09-07-1981,2.71875,0.0,662400,2.75,2.75,0.9327903389930725
10-07-1981,2.710937976837158,0.0,360000,2.757812976837158,2.71875,0.9221905469894409
13-07-1981,2.6875,0.0,428800,2.726562976837158,2.695312976837158,0.9142406582832336
14-07-1981,2.6875,0.0,577600,2.710937976837158,2.703125,0.9168910384178162
15-07-1981,2.695312976837158,0.0,2560000,2.875,2.796875,0.9486902356147766
16-07-1981,2.796875,0.0,1044800,2.835937976837158,2.835937976837158,0.9619404077529907
17-07-1981,2.828125,0.0,542400,2.898437976837158,2.84375,0.9645898938179016
20-07-1981,2.75,0.0,889600,2.84375,2.765625,0.9380902647972107
21-07-1981,2.742187976837158,0.0,651200,2.8125,2.742187976837158,0.930140495300293
22-07-1981,2.703125,0.0,379200,2.765625,2.703125,0.9168910384178162
23-07-1981,2.671875,0.0,664000,2.757812976837158,2.726562976837158,0.92484050989151
24-07-1981,2.71875,0.0,174400,2.765625,2.75,0.9327903389930725
27-07-1981,2.71875,0.0,350400,2.78125,2.71875,0.9221905469894409
28-07-1981,2.703125,0.0,1201600,2.78125,2.78125,0.943389892578125
29-07-1981,2.78125,0.0,1441600,2.835937976837158,2.796875,0.9486902356147766
30-07-1981,2.773437976837158,0.0,329600,2.820312976837158,2.789062976837158,0.9460402727127075
31-07-1981,2.78125,0.0,241600,2.8125,2.78125,0.943389892578125
03-08-1981,2.773437976837158,0.0,460800,2.8125,2.796875,0.9486902356147766
04-08-1981,2.757812976837158,0.0,310400,2.8125,2.796875,0.9486902356147766
05-08-1981,2.796875,0.0,454400,2.890625,2.890625,0.9804898500442505
06-08-1981,2.859375,0.0,1337600,2.945312976837158,2.875,0.9751904010772705
07-08-1981,2.835937976837158,0.0,129600,2.890625,2.851562976837158,0.9672405123710632
10-08-1981,2.835937976837158,0.0,798400,2.875,2.875,0.9751904010772705
11-08-1981,2.890625,0.0,822400,2.96875,2.953125,1.0016900300979614
12-08-1981,2.875,0.0,324800,2.984375,2.882812976837158,0.9778400659561157
13-08-1981,2.835937976837158,0.0,112000,2.875,2.859375,0.969889760017395
14-08-1981,2.851562976837158,0.0,268800,2.929687976837158,2.90625,0.985789954662323
17-08-1981,2.851562976837158,0.0,265600,2.921875,2.882812976837158,0.9778400659561157
18-08-1981,2.8125,0.0,1198400,2.882812976837158,2.835937976837158,0.9619404077529907
19-08-1981,2.828125,0.0,326400,2.859375,2.859375,0.969889760017395
20-08-1981,2.851562976837158,0.0,166400,2.867187976837158,2.851562976837158,0.9672405123710632
21-08-1981,2.828125,0.0,675200,2.859375,2.835937976837158,0.9619404077529907
24-08-1981,2.828125,0.0,747200,2.851562976837158,2.851562976837158,0.9672405123710632
25-08-1981,2.835937976837158,0.0,464000,2.898437976837158,2.882812976837158,0.9778400659561157
26-08-1981,2.867187976837158,0.0,120000,2.890625,2.867187976837158,0.9725403189659119
27-08-1981,2.867187976837158,0.0,112000,2.875,2.867187976837158,0.9725403189659119
28-08-1981,2.867187976837158,0.0,248000,2.875,2.867187976837158,0.9725403189659119
31-08-1981,2.859375,0.0,196800,2.867187976837158,2.859375,0.969889760017395
01-09-1981,2.867187976837158,0.0,342400,2.875,2.867187976837158,0.9725403189659119
02-09-1981,2.875,0.0,153600,2.898437976837158,2.882812976837158,0.9778400659561157
03-09-1981,2.859375,0.0,315200,2.890625,2.859375,0.969889760017395
04-09-1981,2.796875,0.0,465600,2.84375,2.8125,0.9539908766746521
08-09-1981,2.65625,0.0,449600,2.789062976837158,2.695312976837158,0.9142406582832336
09-09-1981,2.664062976837158,0.0,278400,2.703125,2.6875,0.9115907549858093
10-09-1981,2.6875,0.0,217600,2.757812976837158,2.726562976837158,0.92484050989151
11-09-1981,2.6875,0.0,230400,2.726562976837158,2.703125,0.9168910384178162
14-09-1981,2.695312976837158,0.0,393600,2.71875,2.710937976837158,0.9195412397384644
15-09-1981,2.703125,0.0,355200,2.75,2.703125,0.9168910384178162
16-09-1981,2.703125,0.0,403200,2.734375,2.734375,0.9274908304214478
17-09-1981,2.710937976837158,0.0,89600,2.734375,2.710937976837158,0.9195412397384644
18-09-1981,2.632812976837158,0.0,1006400,2.703125,2.640625,0.8956902027130127
21-09-1981,2.640625,0.0,283200,2.648437976837158,2.648437976837158,0.8983407020568848
22-09-1981,2.632812976837158,0.0,240000,2.648437976837158,2.648437976837158,0.8983407020568848
23-09-1981,2.59375,0.0,523200,2.625,2.609375,0.8850905299186707
24-09-1981,2.578125,0.0,484800,2.640625,2.59375,0.8797913193702698
25-09-1981,2.460937976837158,0.0,366400,2.59375,2.46875,0.8373914361000061
28-09-1981,2.390625,0.0,694400,2.546875,2.546875,0.8638908267021179
29-09-1981,2.5625,0.0,737600,2.625,2.5625,0.8691912293434143
30-09-1981,2.5,0.0,313600,2.554687976837158,2.515625,0.8532910346984863
01-10-1981,2.453125,0.0,964800,2.523437976837158,2.492187976837158,0.8453416228294373
02-10-1981,2.476562976837158,0.0,2206400,2.523437976837158,2.523437976837158,0.8559409379959106
05-10-1981,2.476562976837158,0.0,516800,2.53125,2.492187976837158,0.8453416228294373
06-10-1981,2.421875,0.0,513600,2.492187976837158,2.4375,0.8267914652824402
07-10-1981,2.40625,0.0,182400,2.4375,2.421875,0.8214914202690125
08-10-1981,2.40625,0.0,644800,2.460937976837158,2.453125,0.8320911526679993
09-10-1981,2.421875,0.0,329600,2.453125,2.4375,0.8267914652824402
12-10-1981,2.414062976837158,0.0,387200,2.4375,2.4375,0.8267914652824402
13-10-1981,2.421875,0.0,110400,2.445312976837158,2.429687976837158,0.8241419196128845
14-10-1981,2.421875,0.0,70400,2.4375,2.421875,0.8214914202690125
15-10-1981,2.421875,0.0,132800,2.4375,2.429687976837158,0.8241419196128845
16-10-1981,2.429687976837158,0.0,1144000,2.453125,2.429687976837158,0.8241419196128845
19-10-1981,2.414062976837158,0.0,216000,2.445312976837158,2.445312976837158,0.8294416069984436
20-10-1981,2.390625,0.0,1475200,2.421875,2.390625,0.8108918070793152
21-10-1981,2.375,0.0,419200,2.414062976837158,2.390625,0.8108918070793152
22-10-1981,2.3125,0.0,283200,2.382812976837158,2.34375,0.7949920892715454
23-10-1981,2.289062976837158,0.0,372800,2.359375,2.296875,0.7790923714637756
26-10-1981,2.289062976837158,0.0,108800,2.328125,2.304687976837158,0.7817423939704895
27-10-1981,2.304687976837158,0.0,153600,2.367187976837158,2.351562976837158,0.7976420521736145
28-10-1981,2.351562976837158,0.0,648000,2.421875,2.382812976837158,0.8082417845726013
29-10-1981,2.351562976837158,0.0,318400,2.382812976837158,2.359375,0.8002921342849731
30-10-1981,2.351562976837158,0.0,491200,2.390625,2.390625,0.8108918070793152
02-11-1981,2.414062976837158,0.0,1241600,2.46875,2.4375,0.8267914652824402
03-11-1981,2.445312976837158,0.0,411200,2.53125,2.53125,0.8585912585258484
04-11-1981,2.5,0.0,1062400,2.53125,2.507812976837158,0.8506411910057068
05-11-1981,2.507812976837158,0.0,451200,2.5625,2.546875,0.8638908267021179
06-11-1981,2.515625,0.0,161600,2.570312976837158,2.5625,0.8691912293434143
09-11-1981,2.539062976837158,0.0,91200,2.570312976837158,2.570312976837158,0.8718412518501282
10-11-1981,2.59375,0.0,137600,2.617187976837158,2.59375,0.8797913193702698
11-11-1981,2.59375,0.0,331200,2.617187976837158,2.617187976837158,0.8877409100532532
12-11-1981,2.59375,0.0,236800,2.640625,2.609375,0.8850905299186707
13-11-1981,2.53125,0.0,358400,2.59375,2.554687976837158,0.8665412068367004
16-11-1981,2.453125,0.0,284800,2.53125,2.476562976837158,0.8400411605834961
17-11-1981,2.46875,0.0,500800,2.5,2.492187976837158,0.8453416228294373
18-11-1981,2.46875,0.0,926400,2.5,2.46875,0.8373914361000061
19-11-1981,2.460937976837158,0.0,518400,2.484375,2.476562976837158,0.8400411605834961
20-11-1981,2.476562976837158,0.0,86400,2.5,2.5,0.8479916453361511
23-11-1981,2.445312976837158,0.0,190400,2.492187976837158,2.460937976837158,0.8347421288490295
24-11-1981,2.445312976837158,0.0,150400,2.46875,2.460937976837158,0.8347421288490295
25-11-1981,2.445312976837158,0.0,1275200,2.484375,2.453125,0.8320911526679993
27-11-1981,2.453125,0.0,196800,2.476562976837158,2.476562976837158,0.8400411605834961
30-11-1981,2.460937976837158,0.0,275200,2.53125,2.515625,0.8532910346984863
01-12-1981,2.453125,0.0,657600,2.523437976837158,2.484375,0.8426913022994995
02-12-1981,2.445312976837158,0.0,364800,2.507812976837158,2.484375,0.8426913022994995
03-12-1981,2.476562976837158,0.0,422400,2.515625,2.515625,0.8532910346984863
04-12-1981,2.5,0.0,1816000,2.53125,2.515625,0.8532910346984863
07-12-1981,2.46875,0.0,400000,2.53125,2.492187976837158,0.8453416228294373
08-12-1981,2.460937976837158,0.0,201600,2.492187976837158,2.46875,0.8373914361000061
09-12-1981,2.460937976837158,0.0,347200,2.492187976837158,2.484375,0.8426913022994995
10-12-1981,2.460937976837158,0.0,403200,2.5,2.492187976837158,0.8453416228294373
11-12-1981,2.484375,0.0,281600,2.515625,2.515625,0.8532910346984863
14-12-1981,2.4375,0.0,860800,2.492187976837158,2.453125,0.8320911526679993
15-12-1981,2.390625,0.0,264000,2.453125,2.445312976837158,0.8294416069984436
16-12-1981,2.4375,0.0,113600,2.453125,2.445312976837158,0.8294416069984436
17-12-1981,2.4375,0.0,363200,2.453125,2.4375,0.8267914652824402
18-12-1981,2.421875,0.0,209600,2.445312976837158,2.421875,0.8214914202690125
21-12-1981,2.375,0.0,670400,2.4375,2.375,0.8055916428565979
22-12-1981,2.359375,0.0,240000,2.390625,2.375,0.8055916428565979
23-12-1981,2.351562976837158,0.0,388800,2.382812976837158,2.375,0.8055916428565979
24-12-1981,2.367187976837158,0.0,520000,2.382812976837158,2.382812976837158,0.8082417845726013
28-12-1981,2.3125,0.0,1014400,2.375,2.3125,0.7843919396400452
29-12-1981,2.3125,0.0,248000,2.328125,2.3125,0.7843919396400452
30-12-1981,2.3125,0.0,195200,2.335937976837158,2.328125,0.7896921038627625
31-12-1981,2.21875,0.0,580800,2.375,2.359375,0.8002921342849731
04-01-1982,2.335937976837158,0.0,728000,2.367187976837158,2.367187976837158,0.802941620349884
05-01-1982,2.296875,0.0,278400,2.359375,2.328125,0.7896921038627625
06-01-1982,2.289062976837158,0.0,336000,2.328125,2.328125,0.7896921038627625
07-01-1982,2.28125,0.0,408000,2.335937976837158,2.296875,0.7790923714637756
08-01-1982,2.257812976837158,0.0,228800,2.3125,2.265625,0.7684925198554993
11-01-1982,2.1875,0.0,5382400,2.265625,2.1875,0.7419921159744263
12-01-1982,2.15625,0.0,358400,2.210937976837158,2.203125,0.7472923398017883
13-01-1982,2.171875,0.0,507200,2.21875,2.1875,0.7419921159744263
14-01-1982,2.15625,0.0,177600,2.179687976837158,2.179687976837158,0.7393423318862915
15-01-1982,2.140625,0.0,291200,2.1875,2.15625,0.7313919067382812
18-01-1982,2.0,0.0,10244800,2.132812976837158,2.0625,0.6995927691459656
19-01-1982,2.039062976837158,0.0,312000,2.085937976837158,2.054687976837158,0.6969428062438965
20-01-1982,2.023437976837158,0.0,492800,2.0625,2.046875,0.6942925453186035
21-01-1982,2.023437976837158,0.0,321600,2.046875,2.046875,0.6942925453186035
22-01-1982,2.0,0.0,1499200,2.03125,2.03125,0.6889927387237549
25-01-1982,2.0,0.0,403200,2.03125,2.015625,0.6836929321289062
26-01-1982,1.96875,0.0,1643200,2.015625,2.0,0.6783932447433472
27-01-1982,1.9921879768371582,0.0,345600,2.007812976837158,2.007812976837158,0.6810429692268372
28-01-1982,1.9921879768371582,0.0,492800,2.039062976837158,2.039062976837158,0.6916430592536926
29-01-1982,2.0625,0.0,1184000,2.09375,2.085937976837158,0.7075429558753967
01-02-1982,2.03125,0.0,243200,2.078125,2.046875,0.6942925453186035
02-02-1982,2.007812976837158,0.0,283200,2.0625,2.0625,0.6995927691459656
03-02-1982,2.039062976837158,0.0,523200,2.070312976837158,2.070312976837158,0.7022430300712585
04-02-1982,2.046875,0.0,222400,2.078125,2.078125,0.704892635345459
05-02-1982,2.070312976837158,0.0,353600,2.148437976837158,2.148437976837158,0.7287431359291077
08-02-1982,2.078125,0.0,721600,2.125,2.078125,0.704892635345459
09-02-1982,2.015625,0.0,203200,2.046875,2.039062976837158,0.6916430592536926
10-02-1982,2.015625,0.0,596800,2.039062976837158,2.039062976837158,0.6916430592536926
11-02-1982,1.9296879768371582,0.0,480000,2.039062976837158,1.953125,0.6624932289123535
12-02-1982,1.9375,0.0,304000,1.9765629768371582,1.9765629768371582,0.6704432368278503
16-02-1982,1.9375,0.0,512000,1.984375,1.984375,0.6730931401252747
17-02-1982,1.9609379768371582,0.0,233600,2.0,1.9765629768371582,0.6704432368278503
18-02-1982,1.9375,0.0,363200,1.9765629768371582,1.9765629768371582,0.6704432368278503
19-02-1982,1.9453129768371582,0.0,192000,1.984375,1.96875,0.6677932739257812
22-02-1982,1.9375,0.0,1331200,2.023437976837158,1.9453129768371582,0.6598430871963501
23-02-1982,1.9453129768371582,0.0,182400,1.96875,1.9609379768371582,0.6651431918144226
24-02-1982,1.921875,0.0,2142400,1.9609379768371582,1.953125,0.6624932289123535
25-02-1982,1.953125,0.0,889600,1.9765629768371582,1.953125,0.6624932289123535
26-02-1982,1.9453129768371582,0.0,939200,1.96875,1.9609379768371582,0.6651431918144226
01-03-1982,1.9375,0.0,419200,1.96875,1.9375,0.6571930050849915
02-03-1982,1.921875,0.0,336000,1.953125,1.9296879768371582,0.6545430421829224
03-03-1982,1.890625,0.0,409600,1.9296879768371582,1.90625,0.6465932130813599
04-03-1982,1.8828129768371582,0.0,235200,1.921875,1.890625,0.641293466091156
05-03-1982,1.875,0.0,265600,1.90625,1.875,0.6359936594963074
08-03-1982,1.84375,0.0,560000,1.8828129768371582,1.84375,0.6253933906555176
09-03-1982,1.8125,0.0,1928000,1.8515629768371582,1.828125,0.6200936436653137
10-03-1982,1.8203129768371582,0.0,656000,1.859375,1.859375,0.6306934952735901
11-03-1982,1.84375,0.0,712000,1.9375,1.9375,0.6571930050849915
12-03-1982,1.90625,0.0,336000,1.9609379768371582,1.9609379768371582,0.6651431918144226
15-03-1982,1.9453129768371582,0.0,176000,2.0,1.9921879768371582,0.6757431626319885
16-03-1982,1.9765629768371582,0.0,998400,2.007812976837158,2.007812976837158,0.6810429692268372
17-03-1982,1.96875,0.0,952000,2.023437976837158,2.0,0.6783932447433472
18-03-1982,1.9375,0.0,616000,2.0,1.96875,0.6677932739257812
19-03-1982,1.9375,0.0,812800,1.96875,1.96875,0.6677932739257812
22-03-1982,1.9375,0.0,342400,1.96875,1.9609379768371582,0.6651431918144226
23-03-1982,1.9609379768371582,0.0,1097600,2.015625,1.9921879768371582,0.6757431626319885
24-03-1982,2.0,0.0,291200,2.03125,2.015625,0.6836929321289062
25-03-1982,1.96875,0.0,1993600,2.0,1.9921879768371582,0.6757431626319885
26-03-1982,1.953125,0.0,265600,1.9921879768371582,1.9609379768371582,0.6651431918144226
29-03-1982,1.9609379768371582,0.0,44800,1.984375,1.984375,0.6730931401252747
30-03-1982,1.9765629768371582,0.0,248000,2.007812976837158,1.9921879768371582,0.6757431626319885
31-03-1982,1.96875,0.0,72000,1.984375,1.9765629768371582,0.6704432368278503
01-04-1982,1.96875,0.0,228800,2.0,2.0,0.6783932447433472
02-04-1982,1.9765629768371582,0.0,385600,2.015625,2.007812976837158,0.6810429692268372
05-04-1982,2.0,0.0,372800,2.03125,2.007812976837158,0.6810429692268372
06-04-1982,2.007812976837158,0.0,211200,2.023437976837158,2.015625,0.6836929321289062
07-04-1982,2.007812976837158,0.0,254400,2.03125,2.03125,0.6889927387237549
08-04-1982,2.015625,0.0,155200,2.046875,2.023437976837158,0.686343252658844
12-04-1982,2.007812976837158,0.0,131200,2.039062976837158,2.023437976837158,0.686343252658844
13-04-1982,2.023437976837158,0.0,312000,2.046875,2.039062976837158,0.6916430592536926
14-04-1982,2.023437976837158,0.0,408000,2.054687976837158,2.054687976837158,0.6969428062438965
15-04-1982,2.0,0.0,2214400,2.054687976837158,2.007812976837158,0.6810429692268372
16-04-1982,1.984375,0.0,672000,2.015625,2.0,0.6783932447433472
19-04-1982,1.9921879768371582,0.0,412800,2.015625,2.015625,0.6836929321289062
20-04-1982,2.0,0.0,228800,2.015625,2.015625,0.6836929321289062
21-04-1982,2.0,0.0,352000,2.03125,2.015625,0.6836929321289062
22-04-1982,2.0,0.0,467200,2.03125,2.015625,0.6836929321289062
23-04-1982,2.007812976837158,0.0,787200,2.054687976837158,2.054687976837158,0.6969428062438965
26-04-1982,2.070312976837158,0.0,516800,2.117187976837158,2.117187976837158,0.7181426882743835
27-04-1982,2.109375,0.0,404800,2.15625,2.117187976837158,0.7181426882743835
28-04-1982,2.117187976837158,0.0,116800,2.148437976837158,2.125,0.720792829990387
29-04-1982,2.078125,0.0,249600,2.125,2.085937976837158,0.7075429558753967
30-04-1982,2.046875,0.0,862400,2.132812976837158,2.132812976837158,0.723442792892456
03-05-1982,2.09375,0.0,3374400,2.164062976837158,2.15625,0.7313919067382812
04-05-1982,2.101562976837158,0.0,3448000,2.15625,2.117187976837158,0.7181426882743835
05-05-1982,2.09375,0.0,745600,2.140625,2.117187976837158,0.7181426882743835
06-05-1982,2.101562976837158,0.0,491200,2.140625,2.109375,0.7154926061630249
07-05-1982,2.09375,0.0,235200,2.125,2.109375,0.7154926061630249
10-05-1982,2.09375,0.0,78400,2.125,2.101562976837158,0.7128428816795349
11-05-1982,2.101562976837158,0.0,164800,2.140625,2.132812976837158,0.723442792892456
12-05-1982,2.117187976837158,0.0,316800,2.171875,2.140625,0.7260923981666565
13-05-1982,2.0625,0.0,2137600,2.148437976837158,2.078125,0.704892635345459
14-05-1982,2.0625,0.0,3348800,2.109375,2.109375,0.7154926061630249
17-05-1982,2.09375,0.0,280000,2.125,2.109375,0.7154926061630249
18-05-1982,2.101562976837158,0.0,369600,2.125,2.109375,0.7154926061630249
19-05-1982,2.109375,0.0,539200,2.15625,2.125,0.720792829990387
20-05-1982,2.101562976837158,0.0,315200,2.140625,2.140625,0.7260923981666565
21-05-1982,2.09375,0.0,737600,2.140625,2.125,0.720792829990387
24-05-1982,2.09375,0.0,81600,2.125,2.101562976837158,0.7128428816795349
25-05-1982,2.070312976837158,0.0,195200,2.109375,2.085937976837158,0.7075429558753967
26-05-1982,2.070312976837158,0.0,376000,2.09375,2.070312976837158,0.7022430300712585
27-05-1982,2.015625,0.0,241600,2.070312976837158,2.070312976837158,0.7022430300712585
28-05-1982,2.054687976837158,0.0,100800,2.085937976837158,2.078125,0.704892635345459
01-06-1982,1.96875,0.0,196800,2.085937976837158,1.984375,0.6730931401252747
02-06-1982,1.984375,0.0,427200,2.03125,2.03125,0.6889927387237549
03-06-1982,2.0,0.0,928000,2.078125,2.015625,0.6836929321289062
04-06-1982,1.921875,0.0,1617600,2.0,1.9375,0.6571930050849915
07-06-1982,1.9140629768371582,0.0,307200,1.953125,1.921875,0.6518933773040771
08-06-1982,1.890625,0.0,337600,1.921875,1.8984379768371582,0.6439434289932251
09-06-1982,1.828125,0.0,2569600,1.890625,1.8359379768371582,0.622743546962738
10-06-1982,1.8203129768371582,0.0,107200,1.875,1.8671879768371582,0.6333437561988831
11-06-1982,1.8984379768371582,0.0,646400,1.9140629768371582,1.9140629768371582,0.6492437720298767
14-06-1982,1.890625,0.0,726400,1.921875,1.921875,0.6518933773040771
15-06-1982,1.890625,0.0,846400,1.921875,1.921875,0.6518933773040771
16-06-1982,1.921875,0.0,409600,1.9453129768371582,1.9375,0.6571930050849915
17-06-1982,1.90625,0.0,161600,1.9296879768371582,1.9296879768371582,0.6545430421829224
18-06-1982,1.90625,0.0,121600,1.9453129768371582,1.921875,0.6518933773040771
21-06-1982,1.8828129768371582,0.0,140800,1.921875,1.8984379768371582,0.6439434289932251
22-06-1982,1.8828129768371582,0.0,100800,1.90625,1.90625,0.6465932130813599
23-06-1982,1.9140629768371582,0.0,182400,1.9609379768371582,1.953125,0.6624932289123535
24-06-1982,1.953125,0.0,635200,1.9921879768371582,1.9609379768371582,0.6651431918144226
25-06-1982,1.9453129768371582,0.0,168000,1.984375,1.9765629768371582,0.6704432368278503
28-06-1982,1.984375,0.0,752000,2.023437976837158,2.0,0.6783932447433472
29-06-1982,2.0,0.0,566400,2.09375,2.09375,0.7101927399635315
30-06-1982,2.03125,0.0,728000,2.085937976837158,2.078125,0.704892635345459
01-07-1982,2.0625,0.0,1262400,2.085937976837158,2.085937976837158,0.7075429558753967
02-07-1982,2.070312976837158,0.0,228800,2.078125,2.078125,0.704892635345459
06-07-1982,2.046875,0.0,910400,2.085937976837158,2.046875,0.6942925453186035
07-07-1982,2.0,0.0,244800,2.0625,2.0,0.6783932447433472
08-07-1982,2.0,0.0,256000,2.046875,2.039062976837158,0.6916430592536926
09-07-1982,2.039062976837158,0.0,971200,2.0625,2.0625,0.6995927691459656
12-07-1982,2.046875,0.0,321600,2.09375,2.0625,0.6995927691459656
13-07-1982,2.046875,0.0,1595200,2.070312976837158,2.046875,0.6942925453186035
14-07-1982,2.0,0.0,80000,2.03125,2.015625,0.6836929321289062
15-07-1982,2.0,0.0,219200,2.046875,2.03125,0.6889927387237549
16-07-1982,2.0,0.0,1366400,2.03125,2.023437976837158,0.686343252658844
19-07-1982,2.03125,0.0,1960000,2.0625,2.046875,0.6942925453186035
20-07-1982,2.046875,0.0,907200,2.09375,2.085937976837158,0.7075429558753967
21-07-1982,2.09375,0.0,1259200,2.179687976837158,2.171875,0.7366923689842224
22-07-1982,2.164062976837158,0.0,206400,2.21875,2.203125,0.7472923398017883
23-07-1982,2.171875,0.0,185600,2.226562976837158,2.1875,0.7419921159744263
26-07-1982,2.1875,0.0,324800,2.242187976837158,2.242187976837158,0.7605419754981995
27-07-1982,2.210937976837158,0.0,184000,2.226562976837158,2.226562976837158,0.7552424669265747
28-07-1982,2.132812976837158,0.0,358400,2.21875,2.140625,0.7260923981666565
29-07-1982,2.109375,0.0,401600,2.203125,2.203125,0.7472923398017883
30-07-1982,2.195312976837158,0.0,336000,2.226562976837158,2.226562976837158,0.7552424669265747
02-08-1982,2.21875,0.0,564800,2.28125,2.273437976837158,0.7711419463157654
03-08-1982,2.234375,0.0,1036800,2.28125,2.25,0.7631927728652954
04-08-1982,2.140625,0.0,4504000,2.203125,2.148437976837158,0.7287431359291077
05-08-1982,2.09375,0.0,241600,2.140625,2.117187976837158,0.7181426882743835
06-08-1982,2.03125,0.0,753600,2.117187976837158,2.03125,0.6889927387237549
09-08-1982,2.007812976837158,0.0,225600,2.054687976837158,2.054687976837158,0.6969428062438965
10-08-1982,2.046875,0.0,363200,2.078125,2.078125,0.704892635345459
11-08-1982,2.070312976837158,0.0,219200,2.085937976837158,2.078125,0.704892635345459
12-08-1982,2.070312976837158,0.0,756800,2.101562976837158,2.085937976837158,0.7075429558753967
13-08-1982,2.085937976837158,0.0,801600,2.117187976837158,2.109375,0.7154926061630249
16-08-1982,2.101562976837158,0.0,670400,2.132812976837158,2.117187976837158,0.7181426882743835
17-08-1982,2.125,0.0,614400,2.179687976837158,2.179687976837158,0.7393423318862915
18-08-1982,2.25,0.0,2147200,2.34375,2.296875,0.7790923714637756
19-08-1982,2.28125,0.0,1566400,2.3125,2.3125,0.7843919396400452
20-08-1982,2.328125,0.0,1852800,2.484375,2.4375,0.8267914652824402
23-08-1982,2.414062976837158,0.0,1672000,2.5,2.421875,0.8214914202690125
24-08-1982,2.375,0.0,1491200,2.4375,2.40625,0.8161914944648743
25-08-1982,2.375,0.0,1664000,2.507812976837158,2.4375,0.8267914652824402
26-08-1982,2.40625,0.0,1835200,2.53125,2.445312976837158,0.8294416069984436
27-08-1982,2.375,0.0,1766400,2.453125,2.40625,0.8161914944648743
30-08-1982,2.40625,0.0,1560000,2.515625,2.515625,0.8532910346984863
31-08-1982,2.53125,0.0,1078400,2.59375,2.53125,0.8585912585258484
01-09-1982,2.515625,0.0,611200,2.5625,2.515625,0.8532910346984863
02-09-1982,2.390625,0.0,681600,2.523437976837158,2.476562976837158,0.8400411605834961
03-09-1982,2.492187976837158,0.0,932800,2.554687976837158,2.539062976837158,0.8612415790557861
07-09-1982,2.53125,0.0,1057600,2.5625,2.546875,0.8638908267021179
08-09-1982,2.53125,0.0,369600,2.554687976837158,2.53125,0.8585912585258484
09-09-1982,2.53125,0.0,905600,2.554687976837158,2.53125,0.8585912585258484
10-09-1982,2.445312976837158,0.0,1099200,2.53125,2.484375,0.8426913022994995
13-09-1982,2.40625,0.0,2040000,2.492187976837158,2.484375,0.8426913022994995
14-09-1982,2.476562976837158,0.0,827200,2.539062976837158,2.484375,0.8426913022994995
15-09-1982,2.453125,0.0,534400,2.515625,2.515625,0.8532910346984863
16-09-1982,2.460937976837158,0.0,1214400,2.53125,2.492187976837158,0.8453416228294373
17-09-1982,2.445312976837158,0.0,1208000,2.515625,2.46875,0.8373914361000061
20-09-1982,2.4375,0.0,584000,2.492187976837158,2.492187976837158,0.8453416228294373
21-09-1982,2.476562976837158,0.0,1401600,2.515625,2.515625,0.8532910346984863
22-09-1982,2.578125,0.0,2398400,2.617187976837158,2.585937976837158,0.877140998840332
23-09-1982,2.539062976837158,0.0,457600,2.5625,2.5625,0.8691912293434143
24-09-1982,2.53125,0.0,444800,2.5625,2.5625,0.8691912293434143
27-09-1982,2.53125,0.0,627200,2.5625,2.546875,0.8638908267021179
28-09-1982,2.546875,0.0,1088000,2.59375,2.546875,0.8638908267021179
29-09-1982,2.5,0.0,868800,2.5625,2.5,0.8479916453361511
30-09-1982,2.421875,0.0,380800,2.484375,2.460937976837158,0.8347421288490295
01-10-1982,2.445312976837158,0.0,617600,2.5,2.5,0.8479916453361511
04-10-1982,2.476562976837158,0.0,1147200,2.515625,2.507812976837158,0.8506411910057068
05-10-1982,2.5,0.0,1032000,2.53125,2.515625,0.8532910346984863
06-10-1982,2.515625,0.0,1368000,2.570312976837158,2.5625,0.8691912293434143
07-10-1982,2.5625,0.0,841600,2.625,2.609375,0.8850905299186707
08-10-1982,2.578125,0.0,324800,2.609375,2.59375,0.8797913193702698
11-10-1982,2.585937976837158,0.0,542400,2.640625,2.617187976837158,0.8877409100532532
12-10-1982,2.625,0.0,1148800,2.679687976837158,2.679687976837158,0.9089415073394775
13-10-1982,2.671875,0.0,668800,2.84375,2.828125,0.9592899680137634
14-10-1982,2.65625,0.0,795200,2.84375,2.65625,0.9009907841682434
15-10-1982,2.59375,0.0,521600,2.65625,2.632812976837158,0.8930411338806152
18-10-1982,2.648437976837158,0.0,326400,2.734375,2.734375,0.9274908304214478
19-10-1982,2.75,0.0,448000,2.8125,2.804687976837158,0.9513400793075562
20-10-1982,2.8125,0.0,1268800,2.9375,2.875,0.9751904010772705
21-10-1982,2.914062976837158,0.0,7321600,3.023437976837158,2.96875,1.0069897174835205
22-10-1982,3.046875,0.0,2614400,3.140625,3.070312976837158,1.041439414024353
25-10-1982,2.875,0.0,764800,3.0625,2.890625,0.9804898500442505
26-10-1982,2.828125,0.0,988800,2.921875,2.921875,0.991089940071106
27-10-1982,2.984375,0.0,780800,3.070312976837158,3.070312976837158,1.041439414024353
28-10-1982,3.054687976837158,0.0,1020800,3.085937976837158,3.0625,1.0387892723083496
29-10-1982,2.96875,0.0,1156800,3.070312976837158,3.007812976837158,1.0202401876449585
01-11-1982,2.945312976837158,0.0,1216000,3.007812976837158,3.0,1.0175894498825073
02-11-1982,2.976562976837158,0.0,1259200,3.039062976837158,3.015625,1.0228893756866455
03-11-1982,3.015625,0.0,1827200,3.179687976837158,3.15625,1.0705890655517578
04-11-1982,3.234375,0.0,2828800,3.351562976837158,3.25,1.1023885011672974
05-11-1982,3.09375,0.0,1425600,3.335937976837158,3.335937976837158,1.1315386295318604
08-11-1982,3.1875,0.0,732800,3.304687976837158,3.273437976837158,1.1103389263153076
09-11-1982,3.21875,0.0,1198400,3.296875,3.21875,1.0917890071868896
10-11-1982,3.21875,0.0,739200,3.273437976837158,3.234375,1.0970896482467651
11-11-1982,3.15625,0.0,705600,3.21875,3.164062976837158,1.0732394456863403
12-11-1982,3.164062976837158,0.0,312000,3.203125,3.171875,1.0758888721466064
15-11-1982,3.03125,0.0,1032000,3.171875,3.0625,1.0387892723083496
16-11-1982,3.015625,0.0,918400,3.09375,3.0625,1.0387892723083496
17-11-1982,3.078125,0.0,1840000,3.140625,3.109375,1.0546890497207642
18-11-1982,3.09375,0.0,504000,3.148437976837158,3.140625,1.0652894973754883
19-11-1982,3.109375,0.0,796800,3.1875,3.109375,1.0546890497207642
22-11-1982,3.078125,0.0,769600,3.210937976837158,3.078125,1.044089674949646
23-11-1982,2.921875,0.0,617600,3.125,2.921875,0.991089940071106
24-11-1982,2.9375,0.0,529600,3.0625,3.039062976837158,1.0308396816253662
26-11-1982,3.054687976837158,0.0,344000,3.125,3.109375,1.0546890497207642
29-11-1982,3.117187976837158,0.0,272000,3.171875,3.140625,1.0652894973754883
30-11-1982,3.109375,0.0,496000,3.171875,3.140625,1.0652894973754883
01-12-1982,3.1875,0.0,611200,3.234375,3.203125,1.0864887237548828
02-12-1982,3.203125,0.0,649600,3.28125,3.234375,1.0970896482467651
03-12-1982,3.1875,0.0,412800,3.25,3.21875,1.0917890071868896
06-12-1982,3.21875,0.0,459200,3.265625,3.25,1.1023885011672974
07-12-1982,3.25,0.0,1816000,3.3125,3.265625,1.107688546180725
08-12-1982,3.21875,0.0,244800,3.28125,3.21875,1.0917890071868896
09-12-1982,3.15625,0.0,126400,3.1875,3.15625,1.0705890655517578
10-12-1982,3.078125,0.0,145600,3.179687976837158,3.09375,1.0493886470794678
13-12-1982,2.984375,0.0,572800,3.0625,3.0,1.0175894498825073
14-12-1982,3.0,0.0,286400,3.078125,3.0,1.0175894498825073
15-12-1982,2.96875,0.0,160000,3.0,2.976562976837158,1.0096403360366821
16-12-1982,2.882812976837158,0.0,1177600,2.96875,2.945312976837158,0.9990395307540894
17-12-1982,3.015625,0.0,291200,3.09375,3.09375,1.0493886470794678
20-12-1982,3.046875,0.0,868800,3.09375,3.078125,1.044089674949646
21-12-1982,3.078125,0.0,160000,3.109375,3.109375,1.0546890497207642
22-12-1982,3.109375,0.0,694400,3.234375,3.234375,1.0970896482467651
23-12-1982,3.265625,0.0,291200,3.3125,3.28125,1.1129881143569946
27-12-1982,3.109375,0.0,803200,3.28125,3.210937976837158,1.0891387462615967
28-12-1982,3.203125,0.0,744000,3.328125,3.296875,1.1182886362075806
29-12-1982,3.234375,0.0,473600,3.304687976837158,3.28125,1.1129881143569946
30-12-1982,3.265625,0.0,315200,3.3125,3.265625,1.107688546180725
31-12-1982,3.210937976837158,0.0,145600,3.25,3.234375,1.0970896482467651
03-01-1983,3.140625,0.0,499200,3.171875,3.15625,1.0705890655517578
04-01-1983,3.140625,0.0,353600,3.21875,3.21875,1.0917890071868896
05-01-1983,3.234375,0.0,515200,3.296875,3.257812976837158,1.1050386428833008
06-01-1983,3.265625,0.0,1033600,3.46875,3.421875,1.1606881618499756
07-01-1983,3.421875,0.0,2430400,3.609375,3.570312976837158,1.2110376358032227
10-01-1983,3.46875,0.0,899200,3.539062976837158,3.5,1.1871885061264038
11-01-1983,3.453125,0.0,830400,3.515625,3.5,1.1871885061264038
12-01-1983,3.359375,0.0,593600,3.5,3.359375,1.1394875049591064
13-01-1983,3.265625,0.0,724800,3.390625,3.382812976837158,1.1474391222000122
14-01-1983,3.28125,0.0,454400,3.40625,3.40625,1.1553875207901
17-01-1983,3.382812976837158,0.0,652800,3.414062976837158,3.390625,1.150087833404541
18-01-1983,3.375,0.0,288000,3.484375,3.484375,1.1818881034851074
19-01-1983,3.375,0.0,1323200,3.492187976837158,3.453125,1.1712892055511475
20-01-1983,3.328125,0.0,425600,3.429687976837158,3.359375,1.1394875049591064
21-01-1983,3.257812976837158,0.0,241600,3.359375,3.28125,1.1129881143569946
24-01-1983,3.15625,0.0,656000,3.242187976837158,3.21875,1.0917890071868896
25-01-1983,3.171875,0.0,332800,3.296875,3.21875,1.0917890071868896
26-01-1983,3.21875,0.0,328000,3.265625,3.234375,1.0970896482467651
27-01-1983,3.265625,0.0,484800,3.40625,3.359375,1.1394875049591064
28-01-1983,3.375,0.0,462400,3.429687976837158,3.40625,1.1553875207901
31-01-1983,3.40625,0.0,1908800,3.445312976837158,3.429687976837158,1.1633380651474
01-02-1983,3.375,0.0,1342400,3.453125,3.375,1.144788384437561
02-02-1983,3.34375,0.0,249600,3.398437976837158,3.375,1.144788384437561
03-02-1983,3.351562976837158,0.0,200000,3.40625,3.390625,1.150087833404541
04-02-1983,3.34375,0.0,1100800,3.421875,3.40625,1.1553875207901
07-02-1983,3.390625,0.0,1614400,3.460937976837158,3.421875,1.1606881618499756
08-02-1983,3.359375,0.0,667200,3.421875,3.375,1.144788384437561
09-02-1983,3.3125,0.0,299200,3.375,3.367187976837158,1.1421382427215576
10-02-1983,3.375,0.0,784000,3.40625,3.40625,1.1553875207901
11-02-1983,3.390625,0.0,768000,3.414062976837158,3.40625,1.1553875207901
14-02-1983,3.390625,0.0,532800,3.40625,3.390625,1.150087833404541
15-02-1983,3.328125,0.0,1260800,3.390625,3.34375,1.1341884136199951
16-02-1983,3.34375,0.0,881600,3.398437976837158,3.375,1.144788384437561
17-02-1983,3.34375,0.0,2440000,3.421875,3.390625,1.150087833404541
18-02-1983,3.375,0.0,846400,3.421875,3.375,1.144788384437561
22-02-1983,3.375,0.0,1120000,3.40625,3.398437976837158,1.1527385711669922
23-02-1983,3.34375,0.0,1406400,3.398437976837158,3.398437976837158,1.1527385711669922
24-02-1983,3.414062976837158,0.0,2683200,3.5625,3.5625,1.2083874940872192
25-02-1983,3.53125,0.0,2368000,3.601562976837158,3.539062976837158,1.2004374265670776
28-02-1983,3.578125,0.0,1920000,3.625,3.617187976837158,1.2269372940063477
01-03-1983,3.625,0.0,1411200,3.703125,3.6875,1.2507867813110352
02-03-1983,3.695312976837158,0.0,1604800,3.75,3.742187976837158,1.2693372964859009
03-03-1983,3.71875,0.0,1451200,3.765625,3.71875,1.2613869905471802
04-03-1983,3.671875,0.0,840000,3.734375,3.703125,1.2560869455337524
07-03-1983,3.703125,0.0,425600,3.734375,3.71875,1.2613869905471802
08-03-1983,3.65625,0.0,1718400,3.734375,3.65625,1.2401872873306274
09-03-1983,3.640625,0.0,366400,3.6875,3.671875,1.2454867362976074
10-03-1983,3.6875,0.0,595200,3.726562976837158,3.6875,1.2507867813110352
11-03-1983,3.671875,0.0,548800,3.695312976837158,3.695312976837158,1.2534377574920654
14-03-1983,3.671875,0.0,542400,3.734375,3.726562976837158,1.2640371322631836
15-03-1983,3.695312976837158,0.0,740800,3.726562976837158,3.726562976837158,1.2640371322631836
16-03-1983,3.734375,0.0,1308800,3.757812976837158,3.75,1.2719873189926147
17-03-1983,3.75,0.0,859200,3.828125,3.8125,1.2931864261627197
18-03-1983,3.8125,0.0,1619200,4.0,3.984375,1.3514862060546875
21-03-1983,3.875,0.0,937600,3.976562976837158,3.90625,1.324986457824707
22-03-1983,3.90625,0.0,1076800,3.96875,3.9375,1.3355865478515625
23-03-1983,3.921875,0.0,940800,3.960937976837158,3.921875,1.3302862644195557
24-03-1983,3.875,0.0,536000,3.929687976837158,3.890625,1.3196861743927002
25-03-1983,3.859375,0.0,564800,3.898437976837158,3.875,1.314386010169983
28-03-1983,3.859375,0.0,416000,3.898437976837158,3.890625,1.3196861743927002
29-03-1983,3.859375,0.0,576000,3.890625,3.859375,1.309085488319397
30-03-1983,3.789062976837158,0.0,403200,3.867187976837158,3.820312976837158,1.2958372831344604
31-03-1983,3.835937976837158,0.0,547200,3.875,3.84375,1.3037867546081543
04-04-1983,3.84375,0.0,168000,3.875,3.859375,1.309085488319397
05-04-1983,3.84375,0.0,947200,3.875,3.859375,1.309085488319397
06-04-1983,3.8125,3.84375,960000,3.859375,3.84375,1.3037867546081543
07-04-1983,3.828125,3.859375,464000,3.859375,3.84375,1.3037867546081543
08-04-1983,3.75,3.84375,219200,3.84375,3.765625,1.2772865295410156
11-04-1983,3.75,3.765625,387200,3.796875,3.765625,1.2772865295410156
12-04-1983,3.78125,3.796875,313600,3.828125,3.828125,1.2984871864318848
13-04-1983,3.84375,3.84375,401600,3.90625,3.90625,1.324986457824707
14-04-1983,3.914062976837158,3.9375,316800,3.953125,3.9375,1.3355865478515625
15-04-1983,3.914062976837158,3.953125,286400,3.960937976837158,3.914062976837158,1.327636480331421
18-04-1983,3.888672113418579,3.914062976837158,337600,3.929687976837158,3.929687976837158,1.3329365253448486
19-04-1983,3.898437976837158,3.929687976837158,494400,3.976562976837158,3.976562976837158,1.3488372564315796
20-04-1983,3.96875,3.976562976837158,198400,3.992187976837158,3.984375,1.3514862060546875
21-04-1983,3.953125,3.984375,465600,4.015625,3.953125,1.340886116027832
22-04-1983,3.9375,3.960937976837158,182400,4.0,3.953125,1.340886116027832
25-04-1983,3.90625,3.953125,468800,4.0,3.96875,1.3461862802505493
26-04-1983,3.96875,3.992187976837158,272000,4.015625,4.0,1.3567864894866943
27-04-1983,4.0,4.046875,387200,4.09375,4.023437976837158,1.3647361993789673
28-04-1983,4.015625,4.03125,571200,4.046875,4.039062976837158,1.3700358867645264
29-04-1983,4.039062976837158,4.0625,619200,4.085937976837158,4.085937976837158,1.3859357833862305
02-05-1983,4.046875,4.085937976837158,670400,4.117187976837158,4.054687976837158,1.3753361701965332
03-05-1983,4.0,4.023437976837158,428800,4.039062976837158,4.039062976837158,1.3700358867645264
04-05-1983,3.976562976837158,4.007812976837158,451200,4.03125,3.992187976837158,1.3666130304336548
05-05-1983,3.921875,3.96875,740800,4.007812976837158,3.9375,1.3478913307189941
06-05-1983,3.953125,3.953125,803200,4.078125,4.046875,1.385333776473999
09-05-1983,4.0,4.015625,553600,4.0625,4.054687976837158,1.3880090713500977
10-05-1983,4.03125,4.070312976837158,492800,4.070312976837158,4.03125,1.3799842596054077
11-05-1983,4.0,4.039062976837158,252800,4.046875,4.023437976837158,1.3773095607757568
12-05-1983,3.96875,4.023437976837158,396800,4.03125,3.976562976837158,1.3612643480300903
13-05-1983,3.960937976837158,3.992187976837158,225600,3.992187976837158,3.984375,1.363938570022583
16-05-1983,3.9375,3.96875,356800,4.0,4.0,1.3692868947982788
17-05-1983,3.976562976837158,4.0,288000,4.015625,4.015625,1.3746360540390015
18-05-1983,4.007812976837158,4.007812976837158,825600,4.140625,4.03125,1.3799842596054077
19-05-1983,3.921875,3.984375,1417600,3.984375,3.953125,1.3532404899597168
20-05-1983,3.9375,3.953125,321600,4.007812976837158,4.007812976837158,1.3719618320465088
23-05-1983,4.007812976837158,4.015625,488000,4.0625,4.039062976837158,1.3826589584350586
24-05-1983,4.046875,4.046875,355200,4.117187976837158,4.117187976837158,1.4094027280807495
25-05-1983,4.078125,4.09375,580800,4.117187976837158,4.109375,1.4067271947860718
26-05-1983,4.078125,4.09375,1388800,4.25,4.203125,1.4388219118118286
27-05-1983,4.15625,4.203125,209600,4.203125,4.164062976837158,1.4254494905471802
31-05-1983,4.078125,4.164062976837158,601600,4.171875,4.09375,1.4013798236846924
01-06-1983,4.0625,4.0625,488000,4.101562976837158,4.101562976837158,1.4040541648864746
02-06-1983,3.984375,4.109375,366400,4.117187976837158,4.03125,1.3799842596054077
03-06-1983,3.96875,4.015625,1065600,4.046875,4.03125,1.3799842596054077
06-06-1983,4.054687976837158,4.0625,5444800,4.078125,4.070312976837158,1.393356204032898
07-06-1983,4.03125,4.085937976837158,457600,4.085937976837158,4.046875,1.385333776473999
08-06-1983,4.007812976837158,4.046875,444800,4.054687976837158,4.007812976837158,1.3719618320465088
09-06-1983,3.984375,4.015625,427200,4.023437976837158,4.007812976837158,1.3719618320465088
10-06-1983,4.015625,4.023437976837158,1878400,4.0625,4.0625,1.3906811475753784
13-06-1983,4.0625,4.0625,1062400,4.09375,4.078125,1.3960307836532593
14-06-1983,4.078125,4.078125,272000,4.109375,4.109375,1.4067271947860718
15-06-1983,4.101562976837158,4.109375,592000,4.125,4.117187976837158,1.4094027280807495
16-06-1983,4.125,4.125,628800,4.15625,4.15625,1.4227755069732666
17-06-1983,4.125,4.15625,1081600,4.164062976837158,4.125,1.4120779037475586
20-06-1983,4.101562976837158,4.109375,222400,4.140625,4.117187976837158,1.4094027280807495
21-06-1983,4.046875,4.101562976837158,340800,4.117187976837158,4.09375,1.4013798236846924
22-06-1983,4.0625,4.085937976837158,435200,4.109375,4.09375,1.4013798236846924
23-06-1983,4.070312976837158,4.09375,145600,4.109375,4.070312976837158,1.393356204032898
24-06-1983,4.0625,4.070312976837158,212800,4.09375,4.09375,1.4013798236846924
27-06-1983,4.0625,4.070312976837158,609600,4.085937976837158,4.078125,1.3960307836532593
28-06-1983,4.046875,4.09375,428800,4.109375,4.046875,1.385333776473999
29-06-1983,3.9375,4.039062976837158,1552000,4.039062976837158,3.9375,1.3478913307189941
30-06-1983,3.921875,3.9375,534400,3.984375,3.96875,1.358590006828308
01-07-1983,3.953125,3.953125,947200,4.023437976837158,4.023437976837158,1.3773095607757568
05-07-1983,3.96875,4.007812976837158,155200,4.007812976837158,3.992187976837158,1.3666130304336548
06-07-1983,3.9375,3.96875,217600,3.992187976837158,3.984375,1.363938570022583
07-07-1983,3.921875,3.984375,452800,3.984375,3.96875,1.358590006828308
08-07-1983,3.960937976837158,3.96875,152000,3.984375,3.984375,1.363938570022583
11-07-1983,3.976562976837158,3.984375,395200,3.992187976837158,3.976562976837158,1.3612643480300903
12-07-1983,3.90625,3.976562976837158,569600,3.976562976837158,3.90625,1.3371939659118652
13-07-1983,3.859375,3.890625,291200,3.921875,3.867187976837158,1.3238226175308228
14-07-1983,3.875,3.90625,419200,3.9375,3.898437976837158,1.3345201015472412
15-07-1983,3.8125,3.90625,329600,3.914062976837158,3.828125,1.3104509115219116
18-07-1983,3.78125,3.804687976837158,827200,3.828125,3.8125,1.3051010370254517
19-07-1983,3.796875,3.804687976837158,497600,3.820312976837158,3.8125,1.3051010370254517
20-07-1983,3.8125,3.8125,633600,3.875,3.875,1.3264963626861572
21-07-1983,4.0,4.03125,681600,4.03125,4.0,1.3692868947982788
22-07-1983,4.015625,4.070312976837158,747200,4.125,4.125,1.4120779037475586
25-07-1983,4.148437976837158,4.148437976837158,441600,4.210937976837158,4.210937976837158,1.441495656967163
26-07-1983,4.21875,4.21875,814400,4.3125,4.3125,1.4762617349624634
27-07-1983,4.1875,4.3125,531200,4.3125,4.195312976837158,1.4361469745635986
28-07-1983,4.0625,4.203125,384000,4.210937976837158,4.085937976837158,1.3987056016921997
29-07-1983,3.953125,4.03125,771200,4.054687976837158,3.992187976837158,1.3666130304336548
01-08-1983,3.867187976837158,3.90625,1000000,3.921875,3.914062976837158,1.3398687839508057
02-08-1983,3.90625,3.9375,254400,3.953125,3.914062976837158,1.3398687839508057
03-08-1983,3.84375,3.890625,656000,3.90625,3.875,1.3264963626861572
04-08-1983,3.65625,3.796875,812800,3.84375,3.710937976837158,1.2835842370986938
05-08-1983,3.6875,3.6875,881600,3.757812976837158,3.734375,1.291691780090332
08-08-1983,3.703125,3.703125,472000,3.828125,3.734375,1.291691780090332
09-08-1983,3.65625,3.765625,2072000,3.765625,3.671875,1.2700735330581665
10-08-1983,3.5,3.640625,1752000,3.640625,3.53125,1.221431851387024
11-08-1983,3.5,3.53125,923200,3.609375,3.5625,1.2322416305541992
12-08-1983,3.578125,3.59375,320000,3.65625,3.632812976837158,1.2565624713897705
15-08-1983,3.664062976837158,3.664062976837158,304000,3.765625,3.75,1.297095775604248
16-08-1983,3.632812976837158,3.75,900800,3.75,3.671875,1.2700735330581665
17-08-1983,3.65625,3.65625,868800,3.75,3.734375,1.291691780090332
18-08-1983,3.703125,3.765625,305600,3.796875,3.710937976837158,1.2835842370986938
19-08-1983,3.703125,3.71875,187200,3.742187976837158,3.734375,1.291691780090332
22-08-1983,3.734375,3.742187976837158,1060800,3.8125,3.742187976837158,1.2943943738937378
23-08-1983,3.75,3.773437976837158,288000,3.8125,3.789062976837158,1.3106071949005127
24-08-1983,3.726562976837158,3.765625,225600,3.765625,3.734375,1.291691780090332
25-08-1983,3.710937976837158,3.71875,550400,3.8125,3.804687976837158,1.3160126209259033
26-08-1983,3.8125,3.8125,433600,3.90625,3.90625,1.351141333580017
29-08-1983,3.882812976837158,3.921875,259200,3.960937976837158,3.945312976837158,1.3646533489227295
30-08-1983,3.953125,3.953125,1729600,4.070312976837158,4.0,1.3835687637329102
31-08-1983,3.96875,3.96875,924800,3.984375,3.984375,1.3781650066375732
01-09-1983,3.96875,3.96875,502400,4.0625,4.046875,1.399782657623291
02-09-1983,4.046875,4.0625,310400,4.125,4.125,1.4268057346343994
06-09-1983,4.15625,4.171875,457600,4.203125,4.1875,1.448422908782959
07-09-1983,4.21875,4.21875,1228800,4.335937976837158,4.335937976837158,1.499767541885376
08-09-1983,4.320312976837158,4.34375,628800,4.375,4.359375,1.5078734159469604
09-09-1983,4.28125,4.359375,2353600,4.375,4.28125,1.4808518886566162
12-09-1983,4.25,4.296875,604800,4.375,4.257812976837158,1.4727448225021362
13-09-1983,4.125,4.265625,381600,4.265625,4.1875,1.448422908782959
14-09-1983,4.15625,4.21875,126400,4.21875,4.203125,1.4538285732269287
15-09-1983,4.1875,4.203125,356800,4.21875,4.21875,1.4592318534851074
16-09-1983,4.0625,4.1875,581600,4.1875,4.09375,1.4159964323043823
19-09-1983,4.09375,4.125,172800,4.21875,4.171875,1.443019151687622
20-09-1983,4.140625,4.140625,395200,4.25,4.25,1.4700429439544678
21-09-1983,4.203125,4.25,999200,4.46875,4.46875,1.5457055568695068
22-09-1983,4.375,4.46875,1304000,4.46875,4.4375,1.534896731376648
23-09-1983,4.40625,4.421875,452800,4.546875,4.546875,1.572728157043457
26-09-1983,4.46875,4.546875,338400,4.578125,4.484375,1.551110029220581
27-09-1983,4.4375,4.5,402400,4.53125,4.5,1.5565160512924194
28-09-1983,4.453125,4.46875,150400,4.53125,4.453125,1.5403021574020386
29-09-1983,4.34375,4.4375,211200,4.5,4.34375,1.5024696588516235
30-09-1983,4.09375,4.28125,1076800,4.28125,4.109375,1.4214009046554565
03-10-1983,4.015625,4.109375,313600,4.109375,4.109375,1.4214009046554565
04-10-1983,4.078125,4.078125,366400,4.265625,4.234375,1.4646375179290771
05-10-1983,4.15625,4.1875,376000,4.25,4.25,1.4700429439544678
06-10-1983,4.21875,4.25,899200,4.390625,4.34375,1.5024696588516235
07-10-1983,4.5625,4.5625,759200,4.625,4.609375,1.5943483114242554
10-10-1983,4.515625,4.5625,546400,4.5625,4.515625,1.5619205236434937
11-10-1983,4.5,4.5625,453600,4.59375,4.5,1.5565160512924194
12-10-1983,4.46875,4.5,406400,4.578125,4.5625,1.5781335830688477
13-10-1983,4.5625,4.625,558400,4.65625,4.578125,1.5835380554199219
14-10-1983,4.515625,4.5625,148000,4.609375,4.546875,1.572728157043457
17-10-1983,4.375,4.53125,324000,4.53125,4.40625,1.5240880250930786
18-10-1983,4.375,4.515625,324000,4.53125,4.40625,1.5240880250930786
19-10-1983,4.375,4.421875,2216000,4.5625,4.40625,1.5240880250930786
20-10-1983,4.40625,4.4375,604800,4.53125,4.46875,1.5457055568695068
21-10-1983,4.453125,4.453125,1336000,4.5625,4.53125,1.5673245191574097
24-10-1983,4.5,4.53125,313600,4.578125,4.5625,1.5781335830688477
25-10-1983,4.53125,4.5625,668800,4.59375,4.546875,1.572728157043457
26-10-1983,4.453125,4.546875,351200,4.578125,4.515625,1.5619205236434937
27-10-1983,4.484375,4.5,41600,4.5625,4.484375,1.551110029220581
28-10-1983,4.484375,4.484375,607200,4.53125,4.5,1.5565160512924194
31-10-1983,4.515625,4.53125,478400,4.59375,4.5625,1.5781335830688477
01-11-1983,4.4375,4.578125,793600,4.578125,4.46875,1.5457055568695068
02-11-1983,4.453125,4.46875,877600,4.5625,4.546875,1.572728157043457
03-11-1983,4.453125,4.53125,236000,4.53125,4.46875,1.559424877166748
04-11-1983,4.34375,4.375,336800,4.453125,4.34375,1.5158041715621948
07-11-1983,4.25,4.375,408000,4.40625,4.28125,1.493994951248169
08-11-1983,4.203125,4.28125,435200,4.28125,4.203125,1.4667317867279053
09-11-1983,4.203125,4.234375,176800,4.28125,4.25,1.4830899238586426
10-11-1983,4.1875,4.25,495200,4.28125,4.203125,1.4667317867279053
11-11-1983,4.21875,4.234375,1606400,4.3125,4.3125,1.504899024963379
14-11-1983,4.328125,4.328125,616000,4.4375,4.375,1.5267093181610107
15-11-1983,4.34375,4.359375,920800,4.390625,4.34375,1.5158041715621948
16-11-1983,4.296875,4.3125,454400,4.40625,4.40625,1.5376147031784058
17-11-1983,4.359375,4.359375,792000,4.421875,4.390625,1.5321635007858276
18-11-1983,4.328125,4.359375,531200,4.390625,4.390625,1.5321635007858276
21-11-1983,4.375,4.421875,281600,4.4375,4.40625,1.5376147031784058
22-11-1983,4.40625,4.4375,636800,4.5625,4.53125,1.5812348127365112
23-11-1983,4.546875,4.546875,619200,4.65625,4.578125,1.5975922346115112
25-11-1983,4.59375,4.625,273600,4.625,4.59375,1.6030454635620117
28-11-1983,4.53125,4.59375,770400,4.625,4.5625,1.5921399593353271
29-11-1983,4.4375,4.5625,1019200,4.5625,4.4375,1.548519253730774
30-11-1983,4.46875,4.5,844000,4.546875,4.515625,1.5757827758789062
01-12-1983,4.484375,4.484375,309600,4.546875,4.5,1.570330023765564
02-12-1983,4.46875,4.46875,124800,4.5625,4.546875,1.5866870880126953
05-12-1983,4.4375,4.515625,754400,4.515625,4.5,1.570330023765564
06-12-1983,4.46875,4.515625,184000,4.515625,4.46875,1.559424877166748
07-12-1983,4.4375,4.4375,735200,4.5,4.4375,1.548519253730774
08-12-1983,4.40625,4.46875,628800,4.46875,4.4375,1.548519253730774
09-12-1983,4.40625,4.40625,500000,4.453125,4.4375,1.548519253730774
12-12-1983,4.390625,4.390625,120000,4.4375,4.390625,1.5321635007858276
13-12-1983,4.375,4.40625,100000,4.453125,4.40625,1.5376147031784058
14-12-1983,4.34375,4.375,1194400,4.40625,4.34375,1.5158041715621948
15-12-1983,4.25,4.25,192800,4.3125,4.265625,1.488541841506958
16-12-1983,4.1875,4.265625,640800,4.28125,4.234375,1.4776360988616943
19-12-1983,4.203125,4.203125,1264000,4.375,4.296875,1.499446988105774
20-12-1983,4.28125,4.28125,405600,4.375,4.296875,1.499446988105774
21-12-1983,4.21875,4.296875,792800,4.3125,4.3125,1.504899024963379
22-12-1983,4.25,4.3125,403200,4.34375,4.25,1.4830899238586426
23-12-1983,4.203125,4.203125,127200,4.25,4.21875,1.4721828699111938
27-12-1983,4.234375,4.234375,384800,4.328125,4.328125,1.5103521347045898
28-12-1983,4.25,4.3125,1399200,4.328125,4.296875,1.499446988105774
29-12-1983,4.296875,4.3125,188800,4.4375,4.4375,1.548519253730774
30-12-1983,4.34375,4.46875,563200,4.46875,4.359375,1.5212563276290894
03-01-1984,4.328125,4.328125,460000,4.453125,4.34375,1.5158041715621948
04-01-1984,4.3125,4.328125,1320800,4.375,4.34375,1.5158041715621948
05-01-1984,4.34375,4.375,1296000,4.609375,4.5625,1.5921399593353271
06-01-1984,4.53125,4.59375,693600,4.625,4.59375,1.6030454635620117
09-01-1984,4.578125,4.59375,900800,4.75,4.671875,1.6303070783615112
10-01-1984,4.578125,4.703125,532000,4.71875,4.578125,1.5975922346115112
11-01-1984,4.5,4.5625,502400,4.609375,4.578125,1.5975922346115112
12-01-1984,4.46875,4.53125,204000,4.5625,4.5,1.570330023765564
13-01-1984,4.3125,4.4375,294400,4.4375,4.375,1.5267093181610107
16-01-1984,4.3125,4.34375,391200,4.421875,4.421875,1.5430665016174316
17-01-1984,4.375,4.421875,351200,4.4375,4.421875,1.5430665016174316
18-01-1984,4.34375,4.421875,552800,4.4375,4.375,1.5267093181610107
19-01-1984,4.40625,4.40625,529600,4.46875,4.4375,1.548519253730774
20-01-1984,4.453125,4.484375,268000,4.484375,4.453125,1.5539723634719849
23-01-1984,4.296875,4.4375,2306400,4.4375,4.296875,1.499446988105774
24-01-1984,4.21875,4.296875,504800,4.328125,4.21875,1.4721828699111938
25-01-1984,4.1875,4.25,560800,4.296875,4.21875,1.4721828699111938
26-01-1984,4.0625,4.15625,846400,4.1875,4.15625,1.4503744840621948
27-01-1984,4.09375,4.125,588800,4.1875,4.125,1.439469337463379
30-01-1984,3.96875,4.078125,643200,4.078125,4.0,1.395848274230957
31-01-1984,3.96875,4.0,533600,4.09375,4.0,1.395848274230957
01-02-1984,3.8125,4.0,642400,4.0625,3.96875,1.3849436044692993
02-02-1984,3.859375,3.921875,502400,3.953125,3.875,1.3522284030914307
03-02-1984,3.90625,3.90625,748800,4.0,3.9375,1.3740381002426147
06-02-1984,3.859375,3.890625,1136800,3.96875,3.9375,1.3740381002426147
07-02-1984,3.875,3.921875,891200,3.953125,3.953125,1.3794907331466675
08-02-1984,3.921875,4.03125,405600,4.0625,3.9375,1.3740381002426147
09-02-1984,3.8125,3.921875,765600,3.96875,3.84375,1.3413238525390625
10-02-1984,3.71875,3.84375,756000,3.875,3.78125,1.319513201713562
13-02-1984,3.71875,3.796875,352000,3.796875,3.765625,1.3140608072280884
14-02-1984,3.625,3.78125,989600,3.78125,3.75,1.3226583003997803
15-02-1984,3.59375,3.75,422400,3.75,3.625,1.2785695791244507
16-02-1984,3.546875,3.671875,396800,3.6875,3.625,1.2785695791244507
17-02-1984,3.421875,3.625,993600,3.640625,3.46875,1.223457932472229
21-02-1984,3.4375,3.484375,616000,3.5,3.484375,1.2289698123931885
22-02-1984,3.4375,3.484375,3064800,3.609375,3.578125,1.2620354890823364
23-02-1984,3.4375,3.578125,684000,3.578125,3.546875,1.2510136365890503
24-02-1984,3.53125,3.5625,696000,3.625,3.59375,1.2675466537475586
27-02-1984,3.640625,3.671875,732800,3.8125,3.78125,1.3336801528930664
28-02-1984,3.625,3.78125,644800,3.78125,3.65625,1.2895920276641846
29-02-1984,3.65625,3.65625,277600,3.796875,3.734375,1.3171474933624268
01-03-1984,3.6875,3.75,355200,3.8125,3.78125,1.3336801528930664
02-03-1984,3.6875,3.75,1381600,3.8125,3.78125,1.3336801528930664
05-03-1984,3.71875,3.8125,566400,3.90625,3.71875,1.311636209487915
06-03-1984,3.71875,3.75,408800,3.8125,3.765625,1.3281688690185547
07-03-1984,3.6875,3.71875,195200,3.8125,3.75,1.3226583003997803
08-03-1984,3.65625,3.734375,291200,3.765625,3.71875,1.311636209487915
09-03-1984,3.65625,3.75,484000,3.75,3.65625,1.2895920276641846
12-03-1984,3.671875,3.671875,291200,3.796875,3.75,1.3226583003997803
13-03-1984,3.78125,3.78125,470400,3.875,3.8125,1.344701886177063
14-03-1984,3.78125,3.8125,1076000,3.859375,3.8125,1.344701886177063
15-03-1984,3.78125,3.8125,289600,3.859375,3.8125,1.344701886177063
16-03-1984,3.890625,3.90625,772000,3.9375,3.921875,1.3832801580429077
19-03-1984,3.8125,3.890625,313600,3.890625,3.859375,1.3612356185913086
20-03-1984,3.796875,3.828125,220800,3.859375,3.859375,1.3612356185913086
21-03-1984,3.828125,3.828125,252800,3.9375,3.875,1.3667467832565308
22-03-1984,3.78125,3.90625,209600,3.90625,3.828125,1.350213885307312
23-03-1984,3.75,3.8125,304800,3.84375,3.78125,1.3336801528930664
26-03-1984,3.75,3.78125,122400,3.8125,3.796875,1.33919095993042
27-03-1984,3.75,3.765625,103200,3.8125,3.796875,1.33919095993042
28-03-1984,3.78125,3.796875,248800,3.828125,3.8125,1.344701886177063
29-03-1984,3.765625,3.828125,260800,3.828125,3.796875,1.33919095993042
30-03-1984,3.71875,3.796875,354400,3.8125,3.796875,1.33919095993042
02-04-1984,3.640625,3.765625,433600,3.796875,3.640625,1.2840803861618042
03-04-1984,3.625,3.640625,559200,3.71875,3.6875,1.3006136417388916
04-04-1984,3.65625,3.65625,249600,3.71875,3.703125,1.3061249256134033
05-04-1984,3.65625,3.703125,140800,3.71875,3.703125,1.3061249256134033
06-04-1984,3.640625,3.671875,188000,3.6875,3.65625,1.2895920276641846
09-04-1984,3.5,3.6875,860800,3.71875,3.515625,1.239991545677185
10-04-1984,3.453125,3.5,480800,3.53125,3.453125,1.217948079109192
11-04-1984,3.390625,3.4375,2084800,3.453125,3.4375,1.212436556816101
12-04-1984,3.484375,3.484375,885600,3.578125,3.546875,1.2510136365890503
13-04-1984,3.4375,3.578125,2246400,3.59375,3.484375,1.2289698123931885
16-04-1984,3.421875,3.5,888800,3.5,3.46875,1.223457932472229
17-04-1984,3.484375,3.5,1244800,3.546875,3.5,1.2344805002212524
18-04-1984,3.5,3.515625,1323200,3.53125,3.515625,1.239991545677185
19-04-1984,3.5,3.53125,290400,3.578125,3.5625,1.256524920463562
23-04-1984,3.546875,3.59375,242400,3.609375,3.5625,1.256524920463562
24-04-1984,3.484375,3.53125,612800,3.609375,3.5,1.2344805002212524
25-04-1984,3.515625,3.53125,840800,3.59375,3.5625,1.256524920463562
26-04-1984,3.59375,3.59375,1172800,3.75,3.703125,1.3061249256134033
27-04-1984,3.703125,3.734375,596800,3.8125,3.75,1.3226583003997803
30-04-1984,3.703125,3.75,315200,3.796875,3.78125,1.3336801528930664
01-05-1984,3.78125,3.796875,473600,3.84375,3.84375,1.355724573135376
02-05-1984,3.78125,3.859375,392800,3.875,3.859375,1.3612356185913086
03-05-1984,3.78125,3.890625,353600,3.890625,3.828125,1.350213885307312
04-05-1984,3.59375,3.78125,682400,3.796875,3.65625,1.3049315214157104
07-05-1984,3.65625,3.71875,988000,3.75,3.75,1.3383910655975342
08-05-1984,3.71875,3.75,811200,3.828125,3.8125,1.3606972694396973
09-05-1984,3.765625,3.8125,752000,3.875,3.78125,1.3495441675186157
10-05-1984,3.734375,3.78125,208800,3.78125,3.78125,1.3495441675186157
11-05-1984,3.5625,3.78125,575200,3.78125,3.703125,1.3216607570648193
14-05-1984,3.578125,3.71875,273600,3.71875,3.625,1.2937779426574707
15-05-1984,3.5625,3.625,702400,3.640625,3.578125,1.2770475149154663
16-05-1984,3.453125,3.5625,1334400,3.5625,3.5625,1.271471381187439
17-05-1984,3.46875,3.53125,1342400,3.5625,3.46875,1.238011360168457
18-05-1984,3.40625,3.453125,908800,3.5,3.421875,1.2212817668914795
21-05-1984,3.390625,3.40625,536800,3.46875,3.421875,1.2212817668914795
22-05-1984,3.28125,3.421875,1011200,3.421875,3.34375,1.1933989524841309
23-05-1984,3.34375,3.359375,583200,3.421875,3.390625,1.2101281881332397
24-05-1984,3.296875,3.375,1495200,3.40625,3.34375,1.1933989524841309
25-05-1984,3.28125,3.375,728000,3.40625,3.3125,1.1822457313537598
29-05-1984,3.1875,3.34375,768000,3.359375,3.25,1.1599385738372803
30-05-1984,3.125,3.28125,3813600,3.28125,3.15625,1.126478910446167
31-05-1984,3.09375,3.109375,1299200,3.171875,3.125,1.115325927734375
01-06-1984,3.171875,3.1875,1281600,3.234375,3.203125,1.1432095766067505
04-06-1984,3.21875,3.21875,2139200,3.46875,3.375,1.2045518159866333
05-06-1984,3.28125,3.40625,825600,3.40625,3.34375,1.1933989524841309
06-06-1984,3.40625,3.40625,440000,3.46875,3.46875,1.238011360168457
07-06-1984,3.46875,3.46875,6442400,3.515625,3.515625,1.2547414302825928
08-06-1984,3.484375,3.53125,396800,3.546875,3.53125,1.2603180408477783
11-06-1984,3.515625,3.5625,323200,3.5625,3.53125,1.2603180408477783
12-06-1984,3.453125,3.484375,284000,3.5,3.5,1.249164342880249
13-06-1984,3.484375,3.5,260800,3.53125,3.515625,1.2547414302825928
14-06-1984,3.421875,3.5,861600,3.515625,3.453125,1.2324349880218506
15-06-1984,3.375,3.453125,334400,3.484375,3.40625,1.2157049179077148
18-06-1984,3.375,3.375,472000,3.484375,3.46875,1.238011360168457
19-06-1984,3.4375,3.5,385600,3.5,3.484375,1.2435882091522217
20-06-1984,3.375,3.453125,2826400,3.46875,3.46875,1.238011360168457
21-06-1984,3.421875,3.46875,983200,3.46875,3.453125,1.2324349880218506
22-06-1984,3.390625,3.453125,839200,3.453125,3.453125,1.2324349880218506
25-06-1984,3.453125,3.484375,1771200,3.515625,3.46875,1.238011360168457
26-06-1984,3.46875,3.5,2021600,3.546875,3.46875,1.238011360168457
27-06-1984,3.375,3.4375,542400,3.46875,3.4375,1.2268587350845337
28-06-1984,3.390625,3.4375,572000,3.4375,3.4375,1.2268587350845337
29-06-1984,3.4375,3.4375,1027200,3.484375,3.484375,1.2435882091522217
02-07-1984,3.453125,3.53125,511200,3.53125,3.484375,1.2435882091522217
03-07-1984,3.46875,3.5,676000,3.59375,3.5625,1.271471381187439
05-07-1984,3.5,3.5625,293600,3.578125,3.546875,1.2658939361572266
06-07-1984,3.484375,3.53125,331200,3.65625,3.546875,1.2658939361572266
09-07-1984,3.578125,3.59375,264000,3.625,3.625,1.2937779426574707
10-07-1984,3.65625,3.65625,552800,3.78125,3.71875,1.3272377252578735
11-07-1984,3.65625,3.71875,184000,3.75,3.6875,1.3160845041275024
12-07-1984,3.5625,3.625,382400,3.6875,3.625,1.2937779426574707
13-07-1984,3.546875,3.65625,687200,3.6875,3.609375,1.2882013320922852
16-07-1984,3.546875,3.609375,436000,3.65625,3.625,1.2937779426574707
17-07-1984,3.609375,3.625,928800,3.6875,3.65625,1.3049315214157104
18-07-1984,3.53125,3.65625,272800,3.65625,3.625,1.2937779426574707
19-07-1984,3.46875,3.625,314400,3.625,3.5,1.249164342880249
20-07-1984,3.53125,3.53125,136000,3.625,3.59375,1.282624363899231
23-07-1984,3.53125,3.59375,532000,3.59375,3.546875,1.2658939361572266
24-07-1984,3.53125,3.546875,476800,3.59375,3.546875,1.2658939361572266
25-07-1984,3.515625,3.546875,224800,3.578125,3.546875,1.2658939361572266
26-07-1984,3.5,3.578125,936800,3.578125,3.53125,1.2603180408477783
27-07-1984,3.46875,3.5,457600,3.625,3.53125,1.2603180408477783
30-07-1984,3.46875,3.546875,628000,3.609375,3.5,1.249164342880249
31-07-1984,3.40625,3.484375,531200,3.53125,3.453125,1.2324349880218506
01-08-1984,3.484375,3.484375,1785600,3.734375,3.625,1.2937779426574707
02-08-1984,3.625,3.625,1441600,3.75,3.75,1.3383910655975342
03-08-1984,3.828125,3.875,1789600,3.9375,3.875,1.3830039501190186
06-08-1984,3.8125,3.859375,2960800,3.9375,3.9375,1.4218215942382812
07-08-1984,3.890625,3.90625,716000,4.046875,3.984375,1.4387480020523071
08-08-1984,3.9375,3.984375,592000,4.0,3.9375,1.4218215942382812
09-08-1984,3.875,3.9375,1179200,4.125,4.109375,1.4838842153549194
10-08-1984,4.09375,4.09375,1677600,4.234375,4.1875,1.5120954513549805
13-08-1984,4.0625,4.15625,1063200,4.1875,4.078125,1.4726011753082275
14-08-1984,4.09375,4.15625,637600,4.15625,4.09375,1.4782435894012451
15-08-1984,3.96875,4.03125,536000,4.109375,4.078125,1.4726011753082275
16-08-1984,4.046875,4.046875,495200,4.15625,4.09375,1.4782435894012451
17-08-1984,4.09375,4.125,474400,4.15625,4.109375,1.4838842153549194
20-08-1984,4.09375,4.09375,893600,4.1875,4.1875,1.5120954513549805
21-08-1984,4.15625,4.21875,700000,4.28125,4.234375,1.529022455215454
22-08-1984,4.125,4.234375,1062400,4.234375,4.21875,1.5233798027038574
23-08-1984,4.171875,4.1875,199200,4.21875,4.1875,1.5120954513549805
24-08-1984,4.1875,4.1875,376800,4.3125,4.296875,1.5515912771224976
27-08-1984,4.21875,4.3125,188800,4.3125,4.28125,1.5459496974945068
28-08-1984,4.21875,4.25,974400,4.296875,4.234375,1.529022455215454
29-08-1984,4.171875,4.25,725600,4.28125,4.1875,1.5120954513549805
30-08-1984,4.140625,4.15625,276000,4.203125,4.15625,1.5008127689361572
31-08-1984,4.09375,4.125,365600,4.1875,4.1875,1.5120954513549805
04-09-1984,4.140625,4.15625,382400,4.171875,4.171875,1.5064544677734375
05-09-1984,4.078125,4.140625,368000,4.171875,4.140625,1.4951696395874023
06-09-1984,4.171875,4.171875,220000,4.203125,4.1875,1.5120954513549805
07-09-1984,4.15625,4.234375,332000,4.25,4.1875,1.5120954513549805
10-09-1984,4.140625,4.15625,212800,4.21875,4.1875,1.5120954513549805
11-09-1984,4.21875,4.21875,533600,4.28125,4.25,1.5346649885177612
12-09-1984,4.1875,4.21875,748800,4.25,4.21875,1.5233798027038574
13-09-1984,4.1875,4.1875,1043200,4.34375,4.34375,1.5685173273086548
14-09-1984,4.296875,4.359375,648800,4.375,4.34375,1.5685173273086548
17-09-1984,4.3125,4.3125,676800,4.40625,4.40625,1.5910871028900146
18-09-1984,4.40625,4.421875,744800,4.484375,4.484375,1.6192965507507324
19-09-1984,4.421875,4.453125,767200,4.515625,4.4375,1.6023699045181274
20-09-1984,4.40625,4.40625,536800,4.484375,4.46875,1.6136550903320312
21-09-1984,4.4375,4.4375,721600,4.484375,4.4375,1.6023699045181274
24-09-1984,4.40625,4.421875,444000,4.484375,4.46875,1.6136550903320312
25-09-1984,4.375,4.453125,1692000,4.453125,4.421875,1.5967283248901367
26-09-1984,4.359375,4.40625,603200,4.46875,4.359375,1.5741608142852783
27-09-1984,4.28125,4.390625,757600,4.40625,4.375,1.579802393913269
28-09-1984,4.15625,4.265625,817600,4.265625,4.21875,1.5233798027038574
01-10-1984,4.171875,4.1875,296800,4.25,4.21875,1.5233798027038574
02-10-1984,4.171875,4.203125,294400,4.28125,4.171875,1.5064544677734375
03-10-1984,4.0,4.140625,1790400,4.1875,4.03125,1.4556745290756226
04-10-1984,4.03125,4.03125,644000,4.09375,4.09375,1.4782435894012451
05-10-1984,4.125,4.125,310400,4.21875,4.171875,1.5064544677734375
08-10-1984,4.078125,4.15625,121600,4.171875,4.109375,1.4838842153549194
09-10-1984,4.09375,4.109375,1056000,4.15625,4.140625,1.4951696395874023
10-10-1984,4.03125,4.140625,262400,4.15625,4.15625,1.5008127689361572
11-10-1984,4.140625,4.140625,126400,4.21875,4.21875,1.5233798027038574
12-10-1984,4.1875,4.1875,442400,4.328125,4.296875,1.5515912771224976
15-10-1984,4.28125,4.3125,1718400,4.390625,4.34375,1.5685173273086548
16-10-1984,4.1875,4.328125,244000,4.34375,4.21875,1.5233798027038574
17-10-1984,4.1875,4.21875,328800,4.28125,4.25,1.5346649885177612
18-10-1984,4.21875,4.21875,368000,4.34375,4.34375,1.5685173273086548
19-10-1984,4.34375,4.34375,1361600,4.5625,4.421875,1.5967283248901367
22-10-1984,4.375,4.421875,663200,4.421875,4.375,1.579802393913269
23-10-1984,4.3125,4.34375,997600,4.375,4.34375,1.5685173273086548
24-10-1984,4.328125,4.328125,234400,4.4375,4.390625,1.5854451656341553
25-10-1984,4.328125,4.375,1270400,4.390625,4.34375,1.5685173273086548
26-10-1984,4.234375,4.3125,825600,4.34375,4.28125,1.5459496974945068
29-10-1984,4.25,4.265625,343200,4.28125,4.25,1.5346649885177612
30-10-1984,4.21875,4.25,420000,4.359375,4.328125,1.562875509262085
31-10-1984,4.28125,4.28125,791200,4.3125,4.296875,1.5515912771224976
01-11-1984,4.09375,4.125,859200,4.15625,4.125,1.4895273447036743
02-11-1984,4.0625,4.078125,1601600,4.171875,4.140625,1.5116605758666992
05-11-1984,4.109375,4.125,407200,4.203125,4.203125,1.5344791412353516
06-11-1984,4.21875,4.21875,916000,4.296875,4.296875,1.5687047243118286
07-11-1984,4.234375,4.28125,539200,4.296875,4.28125,1.5630004405975342
08-11-1984,4.25,4.28125,999200,4.296875,4.28125,1.5630004405975342
09-11-1984,4.234375,4.296875,480000,4.3125,4.28125,1.5630004405975342
12-11-1984,4.265625,4.265625,361600,4.3125,4.296875,1.5687047243118286
13-11-1984,4.234375,4.265625,615200,4.296875,4.28125,1.5630004405975342
14-11-1984,4.25,4.265625,357600,4.328125,4.3125,1.574409008026123
15-11-1984,4.28125,4.3125,764000,4.3125,4.3125,1.574409008026123
16-11-1984,4.28125,4.3125,492000,4.359375,4.328125,1.5801130533218384
19-11-1984,4.28125,4.296875,768000,4.375,4.3125,1.574409008026123
20-11-1984,4.21875,4.265625,313600,4.296875,4.25,1.551591157913208
21-11-1984,4.21875,4.28125,612800,4.28125,4.25,1.551591157913208
23-11-1984,4.21875,4.234375,168000,4.28125,4.25,1.551591157913208
26-11-1984,4.203125,4.25,520800,4.25,4.234375,1.5458866357803345
27-11-1984,4.171875,4.203125,790400,4.234375,4.203125,1.5344791412353516
28-11-1984,4.125,4.1875,481600,4.1875,4.140625,1.5116605758666992
29-11-1984,4.03125,4.109375,733600,4.125,4.078125,1.4888428449630737
30-11-1984,4.078125,4.125,350400,4.1875,4.109375,1.5002503395080566
03-12-1984,4.0625,4.078125,244800,4.125,4.078125,1.4888428449630737
04-12-1984,4.078125,4.078125,598400,4.1875,4.15625,1.5173656940460205
05-12-1984,4.0625,4.125,287200,4.125,4.09375,1.4945474863052368
06-12-1984,4.078125,4.09375,384800,4.171875,4.140625,1.5116605758666992
07-12-1984,4.09375,4.09375,342400,4.140625,4.125,1.5059560537338257
10-12-1984,4.125,4.125,331200,4.171875,4.140625,1.5116605758666992
11-12-1984,4.125,4.125,416000,4.1875,4.140625,1.5116605758666992
12-12-1984,4.125,4.125,872800,4.15625,4.140625,1.5116605758666992
13-12-1984,4.09375,4.125,420000,4.15625,4.109375,1.5002503395080566
14-12-1984,4.0625,4.078125,412000,4.125,4.09375,1.4945474863052368
17-12-1984,4.0,4.125,1825600,4.125,4.0625,1.4831385612487793
18-12-1984,4.09375,4.09375,884000,4.171875,4.171875,1.5230696201324463
19-12-1984,4.15625,4.15625,755200,4.21875,4.15625,1.5173656940460205
20-12-1984,4.125,4.203125,779200,4.21875,4.125,1.5059560537338257
21-12-1984,3.9375,4.09375,1142400,4.15625,4.046875,1.4774346351623535
24-12-1984,4.046875,4.078125,260800,4.125,4.109375,1.5002503395080566
26-12-1984,4.03125,4.109375,103200,4.109375,4.046875,1.4774346351623535
27-12-1984,4.046875,4.078125,1440800,4.09375,4.0625,1.4831385612487793
28-12-1984,4.0,4.03125,319200,4.0625,4.046875,1.4774346351623535
31-12-1984,4.046875,4.078125,479200,4.171875,4.109375,1.5002503395080566
02-01-1985,4.109375,4.109375,910400,4.203125,4.15625,1.5173656940460205
03-01-1985,4.125,4.15625,364800,4.171875,4.15625,1.5173656940460205
04-01-1985,4.125,4.140625,332800,4.171875,4.125,1.5059560537338257
07-01-1985,4.140625,4.171875,1047200,4.21875,4.171875,1.5230696201324463
08-01-1985,4.15625,4.171875,320800,4.203125,4.1875,1.5287729501724243
09-01-1985,4.1875,4.21875,337600,4.21875,4.21875,1.540182113647461
10-01-1985,4.203125,4.21875,1797600,4.296875,4.296875,1.5687047243118286
11-01-1985,4.234375,4.296875,1031200,4.3125,4.28125,1.5630004405975342
14-01-1985,4.25,4.25,2920800,4.328125,4.328125,1.5801130533218384
15-01-1985,4.296875,4.328125,5229600,4.4375,4.40625,1.608635663986206
16-01-1985,4.40625,4.5,13840000,4.5625,4.515625,1.648565411567688
17-01-1985,4.484375,4.515625,1127200,4.515625,4.5,1.6428624391555786
18-01-1985,4.515625,4.53125,2415200,4.578125,4.546875,1.6599739789962769
21-01-1985,4.53125,4.53125,1831200,4.71875,4.71875,1.7227232456207275
22-01-1985,4.71875,4.734375,2558400,4.859375,4.734375,1.728426218032837
23-01-1985,4.71875,4.75,644800,4.796875,4.765625,1.7398364543914795
24-01-1985,4.71875,4.734375,940800,4.796875,4.734375,1.728426218032837
25-01-1985,4.71875,4.71875,966400,4.921875,4.921875,1.7968807220458984
28-01-1985,4.859375,4.875,801600,5.0,5.0,1.8254021406173706
29-01-1985,4.875,4.921875,579200,4.96875,4.96875,1.8139928579330444
30-01-1985,4.890625,4.984375,1524000,4.984375,4.96875,1.8139928579330444
31-01-1985,4.78125,4.875,620800,4.90625,4.84375,1.768357276916504
01-02-1985,4.78125,4.8125,423200,4.84375,4.78125,1.7455397844314575
04-02-1985,4.765625,4.765625,1716000,4.828125,4.8125,1.7569494247436523
05-02-1985,4.75,4.8125,636800,4.828125,4.78125,1.7455397844314575
06-02-1985,4.65625,4.765625,1779200,4.8125,4.703125,1.7170183658599854
07-02-1985,4.6875,4.703125,568000,4.78125,4.78125,1.7455397844314575
08-02-1985,4.75,4.78125,959200,4.859375,4.859375,1.774061918258667
11-02-1985,4.78125,4.8125,571200,4.8125,4.796875,1.7694517374038696
12-02-1985,4.71875,4.765625,586400,4.796875,4.734375,1.7463955879211426
13-02-1985,4.6875,4.71875,432000,4.75,4.734375,1.7463955879211426
14-02-1985,4.65625,4.734375,1396800,4.734375,4.6875,1.7291042804718018
15-02-1985,4.625,4.65625,1879200,4.65625,4.625,1.706049919128418
19-02-1985,4.609375,4.6875,924800,4.6875,4.609375,1.7002875804901123
20-02-1985,4.578125,4.609375,1586400,4.625,4.59375,1.6945242881774902
21-02-1985,4.546875,4.59375,1268000,4.59375,4.578125,1.6887584924697876
22-02-1985,4.546875,4.5625,1045600,4.609375,4.59375,1.6945242881774902
25-02-1985,4.609375,4.609375,356800,4.609375,4.609375,1.7002875804901123
26-02-1985,4.59375,4.609375,665600,4.65625,4.640625,1.7118141651153564
27-02-1985,4.625,4.625,451200,4.6875,4.65625,1.7175778150558472
28-02-1985,4.671875,4.6875,763200,4.71875,4.71875,1.7406330108642578
01-03-1985,4.71875,4.75,774400,4.859375,4.828125,1.780978798866272
04-03-1985,4.734375,4.796875,907200,4.8125,4.765625,1.7579243183135986
05-03-1985,4.71875,4.796875,940000,4.84375,4.75,1.7521601915359497
06-03-1985,4.75,4.75,1347200,4.859375,4.8125,1.7752152681350708
07-03-1985,4.765625,4.78125,678400,4.890625,4.828125,1.780978798866272
08-03-1985,4.8125,4.8125,493600,4.90625,4.90625,1.8097972869873047
11-03-1985,4.859375,4.875,1016000,4.953125,4.875,1.7982690334320068
12-03-1985,4.6875,4.84375,862400,4.875,4.75,1.7521601915359497
13-03-1985,4.6875,4.71875,280800,4.796875,4.703125,1.7348690032958984
14-03-1985,4.65625,4.6875,569600,4.8125,4.796875,1.7694517374038696
15-03-1985,4.625,4.765625,582400,4.8125,4.625,1.706049919128418
18-03-1985,4.625,4.625,464000,4.703125,4.671875,1.7233426570892334
19-03-1985,4.640625,4.640625,392800,4.796875,4.75,1.7521601915359497
20-03-1985,4.65625,4.71875,212800,4.71875,4.6875,1.7291042804718018
21-03-1985,4.625,4.65625,334400,4.703125,4.671875,1.7233426570892334
22-03-1985,4.65625,4.6875,413600,4.734375,4.703125,1.7348690032958984
25-03-1985,4.65625,4.703125,211200,4.734375,4.703125,1.7348690032958984
26-03-1985,4.6875,4.71875,472000,4.78125,4.71875,1.7406330108642578
27-03-1985,4.703125,4.734375,250400,4.75,4.734375,1.7463955879211426
28-03-1985,4.640625,4.734375,610400,4.734375,4.671875,1.7233426570892334
29-03-1985,4.625,4.703125,410400,4.703125,4.65625,1.7175778150558472
01-04-1985,4.65625,4.671875,460800,4.703125,4.6875,1.7291042804718018
02-04-1985,4.671875,4.703125,448000,4.71875,4.703125,1.7348690032958984
03-04-1985,4.671875,4.671875,388000,4.75,4.75,1.7521601915359497
04-04-1985,4.703125,4.703125,434400,4.75,4.734375,1.7463955879211426
08-04-1985,4.703125,4.734375,388000,4.734375,4.734375,1.7463955879211426
09-04-1985,4.6875,4.6875,454400,4.71875,4.71875,1.7406330108642578
10-04-1985,4.65625,4.78125,894400,4.78125,4.6875,1.7291042804718018
11-04-1985,4.671875,4.703125,643200,4.71875,4.6875,1.7291042804718018
12-04-1985,4.625,4.65625,1068800,4.6875,4.65625,1.7175778150558472
15-04-1985,4.625,4.625,189600,4.6875,4.6875,1.7291042804718018
16-04-1985,4.578125,4.640625,768800,4.671875,4.625,1.706049919128418
17-04-1985,4.421875,4.5625,2160800,4.578125,4.484375,1.6541770696640015
18-04-1985,4.390625,4.40625,640800,4.4375,4.421875,1.63112211227417
19-04-1985,4.390625,4.4375,615200,4.453125,4.4375,1.6368862390518188
22-04-1985,4.34375,4.40625,780000,4.40625,4.40625,1.6253588199615479
23-04-1985,4.34375,4.34375,564000,4.453125,4.453125,1.6426502466201782
24-04-1985,4.375,4.390625,4750400,4.453125,4.390625,1.6195963621139526
25-04-1985,4.34375,4.4375,649600,4.4375,4.4375,1.6368862390518188
26-04-1985,4.390625,4.40625,842400,4.4375,4.421875,1.63112211227417
29-04-1985,4.375,4.421875,504000,4.421875,4.390625,1.6195963621139526
30-04-1985,4.34375,4.359375,612800,4.375,4.359375,1.6080670356750488
01-05-1985,4.34375,4.359375,2526400,4.40625,4.34375,1.6023039817810059
02-05-1985,4.3125,4.328125,977600,4.359375,4.359375,1.6080670356750488
03-05-1985,4.34375,4.359375,497600,4.40625,4.390625,1.6195963621139526
06-05-1985,4.3125,4.359375,297600,4.375,4.3125,1.6091010570526123
07-05-1985,4.3125,4.34375,423200,4.375,4.375,1.632421851158142
08-05-1985,4.328125,4.375,1213600,4.375,4.34375,1.620761513710022
09-05-1985,4.359375,4.359375,549600,4.40625,4.40625,1.6440811157226562
10-05-1985,4.40625,4.421875,1000000,4.53125,4.515625,1.6848927736282349
13-05-1985,4.46875,4.546875,528000,4.546875,4.5,1.679062843322754
14-05-1985,4.53125,4.53125,852000,4.625,4.59375,1.7140440940856934
15-05-1985,4.59375,4.609375,1112000,4.6875,4.640625,1.7315329313278198
16-05-1985,4.65625,4.671875,509600,4.75,4.75,1.7723429203033447
17-05-1985,4.78125,4.78125,1585600,4.859375,4.84375,1.8073230981826782
20-05-1985,4.875,4.890625,1227200,4.96875,4.9375,1.8423044681549072
21-05-1985,4.90625,4.9375,665600,4.96875,4.953125,1.8481345176696777
22-05-1985,4.921875,4.9375,1565600,4.96875,4.9375,1.8423044681549072
23-05-1985,4.875,4.921875,925600,4.953125,4.953125,1.8481345176696777
24-05-1985,4.890625,4.96875,918400,4.984375,4.921875,1.8364752531051636
28-05-1985,4.828125,4.90625,714400,4.921875,4.859375,1.8131548166275024
29-05-1985,4.828125,4.84375,803200,4.90625,4.875,1.8189842700958252
30-05-1985,4.84375,4.890625,470400,4.90625,4.875,1.8189842700958252
31-05-1985,4.84375,4.875,618400,4.90625,4.890625,1.8248138427734375
03-06-1985,4.796875,4.859375,446400,4.890625,4.8125,1.7956644296646118
04-06-1985,4.78125,4.78125,4740800,4.96875,4.921875,1.8364752531051636
05-06-1985,4.9375,4.953125,2116000,5.109375,5.09375,1.9006038904190063
06-06-1985,5.03125,5.09375,1146400,5.109375,5.109375,1.9064356088638306
07-06-1985,5.09375,5.09375,784000,5.1875,5.15625,1.9239262342453003
10-06-1985,5.125,5.15625,580800,5.15625,5.125,1.912265419960022
11-06-1985,5.09375,5.140625,719200,5.140625,5.109375,1.9064356088638306
12-06-1985,5.078125,5.109375,701600,5.125,5.09375,1.9006038904190063
13-06-1985,5.078125,5.125,1678400,5.15625,5.09375,1.9006038904190063
14-06-1985,5.125,5.140625,594400,5.234375,5.21875,1.9472453594207764
17-06-1985,5.1875,5.203125,363200,5.25,5.25,1.958905577659607
18-06-1985,5.171875,5.21875,696800,5.28125,5.1875,1.9355860948562622
19-06-1985,5.15625,5.203125,1571200,5.28125,5.25,1.958905577659607
20-06-1985,5.21875,5.21875,241600,5.28125,5.28125,1.9705644845962524
21-06-1985,5.25,5.25,808000,5.296875,5.296875,1.9763964414596558
24-06-1985,5.21875,5.265625,1336800,5.28125,5.265625,1.964735746383667
25-06-1985,5.1875,5.25,1568000,5.359375,5.203125,1.941414713859558
26-06-1985,5.1875,5.21875,676000,5.28125,5.25,1.958905577659607
27-06-1985,5.21875,5.25,648000,5.296875,5.21875,1.9472453594207764
28-06-1985,5.203125,5.25,646400,5.265625,5.234375,1.953075647354126
01-07-1985,5.203125,5.234375,485600,5.296875,5.28125,1.9705644845962524
02-07-1985,5.25,5.265625,669600,5.3125,5.3125,1.9822255373001099
03-07-1985,5.28125,5.3125,1062400,5.4375,5.40625,2.0172061920166016
05-07-1985,5.390625,5.40625,444000,5.421875,5.421875,2.023036241531372
08-07-1985,5.390625,5.390625,688000,5.421875,5.421875,2.023036241531372
09-07-1985,5.328125,5.421875,791200,5.421875,5.390625,2.0113775730133057
10-07-1985,5.34375,5.375,2248800,5.40625,5.375,2.005547523498535
11-07-1985,5.328125,5.328125,1067200,5.390625,5.390625,2.0113775730133057
12-07-1985,5.390625,5.421875,568800,5.453125,5.453125,2.034696340560913
15-07-1985,5.4375,5.46875,708800,5.5,5.453125,2.034696340560913
16-07-1985,5.421875,5.453125,656800,5.53125,5.5,2.052186965942383
17-07-1985,5.59375,5.625,2698400,5.671875,5.671875,2.116316080093384
18-07-1985,5.625,5.671875,1896000,5.796875,5.78125,2.1571292877197266
19-07-1985,5.734375,5.75,1309600,5.90625,5.875,2.192107915878296
22-07-1985,5.71875,5.84375,429600,5.859375,5.765625,2.1512982845306396
23-07-1985,5.59375,5.796875,941600,5.8125,5.625,2.098829507827759
24-07-1985,5.5,5.65625,410400,5.65625,5.53125,2.0638468265533447
25-07-1985,5.5,5.53125,535200,5.5625,5.5625,2.075507879257202
26-07-1985,5.546875,5.546875,1002400,5.734375,5.71875,2.1338069438934326
29-07-1985,5.59375,5.734375,928000,5.734375,5.640625,2.10465669631958
30-07-1985,5.59375,5.625,361600,5.65625,5.640625,2.10465669631958
31-07-1985,5.625,5.640625,216800,5.6875,5.671875,2.116316080093384
01-08-1985,5.625,5.671875,372800,5.6875,5.65625,2.110487222671509
02-08-1985,5.640625,5.671875,945600,5.734375,5.6875,2.1221492290496826
05-08-1985,5.640625,5.6875,348800,5.6875,5.65625,2.110487222671509
06-08-1985,5.46875,5.5,2713600,5.65625,5.5,2.070488929748535
07-08-1985,5.40625,5.5,1204000,5.53125,5.5,2.070488929748535
08-08-1985,5.5,5.53125,1320000,5.6875,5.6875,2.1410748958587646
09-08-1985,5.609375,5.65625,725600,5.703125,5.640625,2.1234285831451416
12-08-1985,5.609375,5.609375,644000,5.65625,5.625,2.1175484657287598
13-08-1985,5.625,5.640625,587200,5.6875,5.640625,2.1234285831451416
14-08-1985,5.625,5.625,302400,5.6875,5.65625,2.1293106079101562
15-08-1985,5.53125,5.671875,822400,5.671875,5.53125,2.0822548866271973
16-08-1985,5.375,5.5,678400,5.53125,5.421875,2.0410799980163574
19-08-1985,5.421875,5.421875,441600,5.484375,5.453125,2.0528438091278076
20-08-1985,5.453125,5.484375,385600,5.578125,5.546875,2.088135242462158
21-08-1985,5.453125,5.53125,1249600,5.625,5.5625,2.0940184593200684
22-08-1985,5.484375,5.59375,1018400,5.59375,5.5,2.070488929748535
23-08-1985,5.4375,5.46875,458400,5.5625,5.484375,2.064608097076416
26-08-1985,5.484375,5.484375,340800,5.546875,5.5,2.070488929748535
27-08-1985,5.484375,5.484375,152800,5.5625,5.5625,2.0940184593200684
28-08-1985,5.46875,5.5625,448800,5.578125,5.5,2.070488929748535
29-08-1985,5.484375,5.5,355200,5.546875,5.53125,2.0822548866271973
30-08-1985,5.484375,5.53125,737600,5.546875,5.53125,2.0822548866271973
03-09-1985,5.515625,5.546875,384000,5.6875,5.6875,2.1410748958587646
04-09-1985,5.625,5.6875,371200,5.734375,5.671875,2.1351919174194336
05-09-1985,5.5625,5.6875,484000,5.6875,5.578125,2.0998988151550293
06-09-1985,5.484375,5.5625,406400,5.59375,5.546875,2.088135242462158
09-09-1985,5.5,5.5625,142400,5.5625,5.5,2.070488929748535
10-09-1985,5.46875,5.46875,272800,5.515625,5.5,2.070488929748535
11-09-1985,5.375,5.5,1280000,5.5,5.390625,2.029315233230591
12-09-1985,5.34375,5.375,597600,5.4375,5.375,2.023433208465576
13-09-1985,5.375,5.375,556800,5.4375,5.421875,2.0410799980163574
16-09-1985,5.40625,5.453125,253600,5.53125,5.515625,2.076371431350708
17-09-1985,5.515625,5.515625,879200,5.625,5.609375,2.1116652488708496
18-09-1985,5.484375,5.578125,427200,5.640625,5.484375,2.064608097076416
19-09-1985,5.453125,5.515625,568000,5.515625,5.484375,2.064608097076416
20-09-1985,5.421875,5.453125,589600,5.53125,5.46875,2.058725357055664
23-09-1985,5.53125,5.53125,484000,5.59375,5.59375,2.1057822704315186
24-09-1985,5.578125,5.59375,599200,5.65625,5.609375,2.1116652488708496
25-09-1985,5.546875,5.546875,301600,5.609375,5.609375,2.1116652488708496
26-09-1985,5.53125,5.625,360000,5.625,5.59375,2.1057822704315186
30-09-1985,5.578125,5.59375,349600,5.625,5.625,2.1175484657287598
01-10-1985,5.59375,5.609375,324000,5.703125,5.703125,2.146955966949463
02-10-1985,5.59375,5.71875,1103200,5.796875,5.59375,2.1057822704315186
03-10-1985,5.578125,5.578125,260800,5.6875,5.609375,2.1116652488708496
04-10-1985,5.546875,5.609375,794400,5.609375,5.578125,2.0998988151550293
07-10-1985,5.390625,5.5625,848800,5.5625,5.40625,2.0351972579956055
08-10-1985,5.40625,5.4375,253600,5.484375,5.453125,2.0528438091278076
09-10-1985,5.40625,5.421875,2060000,5.46875,5.4375,2.046961784362793
10-10-1985,5.421875,5.421875,260000,5.453125,5.4375,2.046961784362793
11-10-1985,5.40625,5.40625,1391200,5.46875,5.46875,2.058725357055664
14-10-1985,5.453125,5.46875,680000,5.53125,5.53125,2.0822548866271973
15-10-1985,5.53125,5.5625,476800,5.59375,5.59375,2.1057822704315186
16-10-1985,5.578125,5.578125,1112000,5.671875,5.671875,2.1351919174194336
17-10-1985,5.640625,5.640625,757600,5.703125,5.6875,2.1410748958587646
18-10-1985,5.5625,5.671875,757600,5.703125,5.578125,2.0998988151550293
21-10-1985,5.5625,5.59375,1012800,5.734375,5.65625,2.1293106079101562
22-10-1985,5.65625,5.671875,692000,5.71875,5.703125,2.146955966949463
23-10-1985,5.59375,5.703125,376800,5.703125,5.671875,2.1351919174194336
24-10-1985,5.59375,5.65625,386400,5.671875,5.625,2.1175484657287598
25-10-1985,5.515625,5.59375,182400,5.609375,5.609375,2.1116652488708496
28-10-1985,5.546875,5.609375,180000,5.625,5.609375,2.1116652488708496
29-10-1985,5.609375,5.609375,212800,5.65625,5.65625,2.1293106079101562
30-10-1985,5.625,5.625,640000,5.671875,5.671875,2.1351919174194336
31-10-1985,5.65625,5.65625,524000,5.6875,5.6875,2.1410748958587646
01-11-1985,5.65625,5.65625,965600,5.890625,5.890625,2.2175416946411133
04-11-1985,5.859375,5.90625,1089600,6.0,5.90625,2.2234232425689697
05-11-1985,5.8125,6.015625,884000,6.015625,6.015625,2.2858848571777344
06-11-1985,6.015625,6.015625,1521600,6.15625,6.046875,2.2977590560913086
07-11-1985,6.03125,6.046875,840000,6.15625,6.15625,2.339319944381714
08-11-1985,6.046875,6.125,337600,6.125,6.09375,2.3155710697174072
11-11-1985,6.03125,6.09375,656800,6.15625,6.15625,2.339319944381714
12-11-1985,6.125,6.125,1264800,6.25,6.234375,2.3690080642700195
13-11-1985,6.140625,6.25,449600,6.25,6.140625,2.333383321762085
14-11-1985,6.078125,6.125,614400,6.234375,6.171875,2.345257043838501
15-11-1985,6.15625,6.15625,1276800,6.3125,6.203125,2.3571319580078125
18-11-1985,6.140625,6.21875,1349600,6.296875,6.296875,2.3927581310272217
19-11-1985,6.34375,6.375,854400,6.421875,6.421875,2.440256357192993
20-11-1985,6.34375,6.375,290400,6.40625,6.375,2.4224438667297363
21-11-1985,6.34375,6.375,668800,6.40625,6.375,2.4224438667297363
22-11-1985,6.203125,6.34375,374400,6.375,6.21875,2.3630688190460205
25-11-1985,6.1875,6.3125,424800,6.3125,6.265625,2.3808820247650146
26-11-1985,6.0625,6.234375,1265600,6.25,6.15625,2.339319944381714
27-11-1985,6.1875,6.1875,1169600,6.3125,6.28125,2.386819362640381
29-11-1985,6.203125,6.25,924800,6.3125,6.234375,2.3690080642700195
02-12-1985,6.125,6.203125,472800,6.21875,6.203125,2.3571319580078125
03-12-1985,6.171875,6.21875,650400,6.25,6.1875,2.3511948585510254
04-12-1985,6.03125,6.0625,2110400,6.1875,6.171875,2.345257043838501
05-12-1985,5.9375,6.15625,1506400,6.1875,5.9375,2.2561988830566406
06-12-1985,5.5625,5.90625,1225600,5.90625,5.859375,2.226510524749756
09-12-1985,5.828125,5.828125,827200,6.078125,5.96875,2.268071413040161
10-12-1985,5.9375,5.9375,409600,6.03125,5.953125,2.2621355056762695
11-12-1985,5.9375,5.9375,549600,6.0,5.984375,2.274009943008423
12-12-1985,5.90625,5.984375,1932000,6.0625,5.984375,2.274009943008423
13-12-1985,5.984375,5.984375,625600,6.234375,6.203125,2.3571319580078125
16-12-1985,6.140625,6.1875,1236000,6.359375,6.34375,2.410568952560425
17-12-1985,6.1875,6.359375,1179200,6.359375,6.359375,2.4165074825286865
18-12-1985,6.28125,6.328125,987200,6.375,6.34375,2.410568952560425
19-12-1985,6.28125,6.296875,683200,6.359375,6.296875,2.3927581310272217
20-12-1985,6.25,6.296875,795200,6.375,6.375,2.4224438667297363
23-12-1985,6.28125,6.3125,602400,6.375,6.359375,2.4165074825286865
24-12-1985,6.09375,6.3125,727200,6.3125,6.140625,2.333383321762085
26-12-1985,6.09375,6.125,173600,6.140625,6.109375,2.3215091228485107
27-12-1985,6.078125,6.078125,525600,6.1875,6.1875,2.3511948585510254
30-12-1985,6.15625,6.1875,418400,6.265625,6.265625,2.3808820247650146
31-12-1985,6.25,6.28125,786400,6.375,6.375,2.4224438667297363
02-01-1986,6.296875,6.375,540800,6.375,6.328125,2.4046318531036377
03-01-1986,6.25,6.3125,650400,6.34375,6.296875,2.3927581310272217
06-01-1986,6.140625,6.296875,427200,6.296875,6.1875,2.3511948585510254
07-01-1986,6.03125,6.21875,592000,6.234375,6.125,2.327446699142456
08-01-1986,5.6875,6.15625,1376800,6.171875,5.71875,2.173074722290039
09-01-1986,5.625,5.625,1164800,5.828125,5.828125,2.214637041091919
10-01-1986,5.765625,5.8125,749600,5.84375,5.78125,2.1968235969543457
13-01-1986,5.765625,5.78125,688800,5.84375,5.78125,2.1968235969543457
14-01-1986,5.71875,5.78125,1518400,5.796875,5.765625,2.190887689590454
15-01-1986,5.71875,5.75,1378400,5.90625,5.90625,2.244323253631592
16-01-1986,5.875,5.921875,352000,6.03125,5.984375,2.274009943008423
17-01-1986,5.9375,5.953125,518400,6.0625,6.015625,2.2858848571777344
20-01-1986,5.890625,5.984375,744800,5.984375,5.96875,2.268071413040161
21-01-1986,5.875,5.953125,740000,6.0,5.921875,2.250260353088379
22-01-1986,5.8125,5.96875,1319200,6.0,5.8125,2.2086989879608154
23-01-1986,5.765625,5.78125,598400,5.875,5.828125,2.214637041091919
24-01-1986,5.8125,5.8125,909600,5.953125,5.953125,2.2621355056762695
27-01-1986,5.890625,5.90625,435200,5.984375,5.96875,2.268071413040161
28-01-1986,5.9375,6.0,480800,6.0,5.953125,2.2621355056762695
29-01-1986,5.953125,5.984375,848000,6.125,6.03125,2.2918214797973633
30-01-1986,6.0,6.015625,881600,6.109375,6.0625,2.303696393966675
31-01-1986,6.078125,6.109375,1335200,6.171875,6.140625,2.333383321762085
03-02-1986,6.109375,6.109375,628000,6.21875,6.203125,2.3571319580078125
04-02-1986,6.21875,6.25,1524000,6.28125,6.234375,2.3690080642700195
05-02-1986,6.234375,6.25,1951200,6.328125,6.3125,2.3986947536468506
06-02-1986,6.328125,6.34375,1742400,6.453125,6.421875,2.440256357192993
07-02-1986,6.359375,6.421875,972000,6.53125,6.53125,2.4818172454833984
10-02-1986,6.546875,6.703125,1145600,6.734375,6.703125,2.547128438949585
11-02-1986,6.640625,6.875,1729600,6.890625,6.875,2.6340527534484863
12-02-1986,6.75,6.84375,1461600,6.90625,6.75,2.5861594676971436
13-02-1986,6.6875,6.71875,1157600,6.875,6.875,2.6340527534484863
14-02-1986,6.734375,6.90625,1000000,6.96875,6.96875,2.669970750808716
18-02-1986,6.96875,7.0,1034400,7.15625,7.125,2.7298359870910645
19-02-1986,7.125,7.15625,1052000,7.34375,7.171875,2.7477946281433105
20-02-1986,7.125,7.171875,2320800,7.234375,7.15625,2.7418084144592285
21-02-1986,7.140625,7.15625,1183200,7.3125,7.265625,2.783715009689331
24-02-1986,7.15625,7.21875,668800,7.3125,7.296875,2.795686721801758
25-02-1986,7.15625,7.3125,1738400,7.34375,7.21875,2.765756130218506
26-02-1986,7.21875,7.25,732000,7.296875,7.28125,2.7897002696990967
27-02-1986,7.25,7.3125,463200,7.375,7.328125,2.807661294937134
28-02-1986,7.46875,7.5,1215200,7.6875,7.6875,2.9453487396240234
03-03-1986,7.421875,7.6875,721600,7.6875,7.453125,2.8555514812469482
04-03-1986,7.34375,7.453125,1326400,7.6875,7.53125,2.885483980178833
05-03-1986,7.46875,7.5625,562400,7.5625,7.5625,2.897458076477051
06-03-1986,7.5625,7.59375,1779200,8.046875,7.984375,3.0590925216674805
07-03-1986,7.84375,7.984375,1203200,7.984375,7.90625,3.029160499572754
10-03-1986,7.71875,7.90625,428000,7.96875,7.71875,2.9573233127593994
11-03-1986,7.703125,7.703125,742400,7.921875,7.890625,3.02317476272583
12-03-1986,7.875,7.875,964800,8.15625,8.03125,3.0770516395568848
13-03-1986,7.921875,8.0625,636000,8.125,8.09375,3.1009984016418457
14-03-1986,7.53125,8.0625,1812800,8.125,8.0625,3.089024543762207
17-03-1986,7.78125,7.96875,766400,8.0625,7.984375,3.0590925216674805
18-03-1986,7.8125,7.96875,484800,7.984375,7.953125,3.047119617462158
19-03-1986,7.8125,7.921875,692000,7.96875,7.90625,3.029160499572754
20-03-1986,7.875,7.90625,1108000,8.0625,8.0625,3.089024543762207
21-03-1986,8.0625,8.125,1337600,8.21875,8.15625,3.124943733215332
24-03-1986,8.125,8.21875,1558400,8.265625,8.203125,3.1429033279418945
25-03-1986,7.9375,8.1875,685600,8.1875,8.109375,3.1069836616516113
26-03-1986,8.015625,8.109375,904000,8.109375,8.046875,3.083038568496704
27-03-1986,8.0,8.09375,678400,8.109375,8.015625,3.0710668563842773
31-03-1986,8.03125,8.078125,582400,8.109375,8.078125,3.0950117111206055
01-04-1986,8.015625,8.109375,619200,8.109375,8.015625,3.0710668563842773
02-04-1986,7.96875,8.03125,1211200,8.046875,8.046875,3.083038568496704
03-04-1986,7.9375,8.046875,392800,8.078125,7.96875,3.0531060695648193
04-04-1986,7.59375,7.9375,819200,8.09375,7.59375,2.9094293117523193
07-04-1986,7.546875,7.59375,560800,7.65625,7.65625,2.933375358581543
08-04-1986,7.640625,7.671875,503200,7.875,7.75,2.969294548034668
09-04-1986,7.609375,7.8125,917600,7.890625,7.625,2.921403408050537
10-04-1986,7.375,7.65625,1039200,7.65625,7.59375,2.9094293117523193
11-04-1986,7.546875,7.578125,458400,7.65625,7.625,2.921403408050537
14-04-1986,7.53125,7.65625,730400,7.671875,7.625,2.921403408050537
15-04-1986,7.625,7.65625,269600,7.734375,7.640625,2.9273886680603027
16-04-1986,7.71875,7.71875,1074400,8.28125,8.25,3.160860300064087
17-04-1986,7.9375,8.1875,801600,8.234375,8.0,3.0650787353515625
18-04-1986,7.640625,8.03125,1028000,8.046875,8.03125,3.0770516395568848
21-04-1986,8.0,8.09375,858400,8.109375,8.078125,3.0950117111206055
22-04-1986,8.125,8.21875,1219200,8.28125,8.25,3.160860300064087
23-04-1986,8.1875,8.25,945600,8.28125,8.25,3.160860300064087
24-04-1986,8.1875,8.1875,652800,8.265625,8.203125,3.1429033279418945
25-04-1986,8.15625,8.203125,555200,8.234375,8.234375,3.154876232147217
28-04-1986,8.15625,8.234375,561600,8.265625,8.234375,3.154876232147217
29-04-1986,8.015625,8.203125,452000,8.203125,8.09375,3.1009984016418457
30-04-1986,8.09375,8.171875,1053600,8.28125,8.125,3.112971544265747
01-05-1986,8.03125,8.09375,796000,8.25,8.234375,3.154876232147217
02-05-1986,8.125,8.203125,712800,8.265625,8.203125,3.1429033279418945
05-05-1986,8.125,8.171875,431200,8.25,8.21875,3.148888111114502
06-05-1986,8.09375,8.09375,180800,8.1875,8.09375,3.1238038539886475
07-05-1986,8.09375,8.140625,590400,8.25,8.234375,3.178076982498169
08-05-1986,8.03125,8.28125,355200,8.28125,8.046875,3.105710983276367
09-05-1986,7.921875,8.015625,398400,8.015625,7.921875,3.0574684143066406
12-05-1986,7.796875,7.9375,1021600,7.953125,7.796875,3.009223461151123
13-05-1986,7.65625,7.796875,651200,7.796875,7.703125,2.973039388656616
14-05-1986,7.625,7.71875,809600,7.734375,7.625,2.942887544631958
15-05-1986,7.4375,7.640625,608000,7.640625,7.46875,2.8825833797454834
16-05-1986,7.3125,7.4375,1061600,7.5,7.5,2.8946447372436523
19-05-1986,7.515625,7.53125,737600,7.625,7.609375,2.9368579387664795
20-05-1986,7.5625,7.609375,799200,7.75,7.734375,2.9850995540618896
21-05-1986,7.640625,7.75,1017600,7.796875,7.75,2.9911305904388428
22-05-1986,7.734375,7.75,465600,7.90625,7.90625,3.05143666267395
23-05-1986,7.890625,7.921875,533600,8.03125,8.015625,3.093651294708252
27-05-1986,7.953125,7.984375,221600,8.015625,7.984375,3.0815892219543457
28-05-1986,7.875,7.984375,617600,8.0,7.953125,3.0695278644561768
29-05-1986,7.8125,7.921875,1089600,7.9375,7.9375,3.06349778175354
30-05-1986,7.828125,7.875,1028000,7.90625,7.890625,3.0454068183898926
02-06-1986,7.875,7.90625,1261600,7.953125,7.953125,3.0695278644561768
03-06-1986,7.90625,7.921875,451200,7.953125,7.953125,3.0695278644561768
04-06-1986,7.96875,7.984375,777600,8.109375,8.09375,3.1238038539886475
05-06-1986,8.015625,8.09375,804800,8.109375,8.109375,3.1298325061798096
06-06-1986,7.890625,8.078125,664800,8.09375,7.921875,3.0574684143066406
09-06-1986,7.578125,7.890625,507200,7.890625,7.625,2.942887544631958
10-06-1986,7.59375,7.609375,776800,7.71875,7.65625,2.9549474716186523
11-06-1986,7.625,7.671875,693600,7.734375,7.71875,2.979071855545044
12-06-1986,7.640625,7.6875,357600,7.859375,7.859375,3.0333449840545654
13-06-1986,7.84375,7.84375,600000,8.03125,8.03125,3.0996804237365723
16-06-1986,7.9375,8.0,724000,8.0625,8.0625,3.111741542816162
17-06-1986,7.859375,8.0625,438400,8.0625,7.96875,3.075559377670288
18-06-1986,7.828125,7.96875,331200,7.96875,7.921875,3.0574684143066406
19-06-1986,7.6875,7.921875,492000,7.9375,7.78125,3.00319242477417
20-06-1986,7.765625,7.78125,617600,7.875,7.84375,3.0273163318634033
23-06-1986,7.78125,7.875,881600,7.9375,7.90625,3.05143666267395
24-06-1986,7.890625,7.9375,989600,8.109375,8.0625,3.111741542816162
25-06-1986,8.078125,8.109375,1040000,8.171875,8.171875,3.1539552211761475
26-06-1986,8.21875,8.34375,1207200,8.6875,8.6875,3.352961301803589
27-06-1986,8.53125,8.65625,572000,8.65625,8.59375,3.316779375076294
30-06-1986,8.5,8.5625,396000,8.640625,8.515625,3.286625862121582
01-07-1986,8.46875,8.5,1366400,8.546875,8.53125,3.2926583290100098
02-07-1986,8.4375,8.53125,1432800,8.53125,8.46875,3.2685368061065674
03-07-1986,8.3125,8.484375,1009600,8.484375,8.421875,3.2504429817199707
07-07-1986,8.15625,8.453125,603200,8.453125,8.15625,3.1479249000549316
08-07-1986,7.765625,8.0,1141600,8.0,7.9375,3.06349778175354
09-07-1986,7.828125,7.9375,952800,7.96875,7.921875,3.0574684143066406
10-07-1986,7.703125,7.921875,696000,7.921875,7.84375,3.0273163318634033
11-07-1986,7.78125,7.875,1339200,7.875,7.875,3.039376735687256
14-07-1986,7.71875,7.84375,626400,7.84375,7.765625,2.997161865234375
15-07-1986,7.5,7.71875,1178400,7.75,7.53125,2.9067037105560303
16-07-1986,7.515625,7.625,808800,7.671875,7.515625,2.9006736278533936
17-07-1986,7.5,7.5,1128000,7.671875,7.640625,2.9489171504974365
18-07-1986,7.65625,7.75,808800,7.90625,7.78125,3.00319242477417
21-07-1986,7.65625,7.75,498400,7.75,7.71875,2.979071855545044
22-07-1986,7.6875,7.6875,740000,7.875,7.875,3.039376735687256
23-07-1986,7.8125,7.859375,1444000,7.984375,7.96875,3.075559377670288
24-07-1986,7.9375,7.96875,552000,8.0625,8.0625,3.111741542816162
25-07-1986,7.96875,8.078125,448000,8.09375,8.09375,3.1238038539886475
28-07-1986,7.8125,8.078125,580000,8.09375,7.8125,3.0152533054351807
29-07-1986,7.765625,7.828125,768800,7.828125,7.78125,3.00319242477417
30-07-1986,7.65625,7.78125,514400,7.796875,7.703125,2.973039388656616
31-07-1986,7.65625,7.734375,704800,7.734375,7.703125,2.973039388656616
01-08-1986,7.59375,7.6875,1102400,7.6875,7.59375,2.930825710296631
04-08-1986,7.5,7.5625,620800,7.859375,7.859375,3.0333449840545654
05-08-1986,7.71875,7.71875,760800,7.875,7.71875,3.0019896030426025
06-08-1986,7.53125,7.625,532800,7.640625,7.5625,2.9412195682525635
07-08-1986,7.484375,7.59375,768800,7.625,7.5,2.9169113636016846
08-08-1986,7.40625,7.546875,616800,7.546875,7.53125,2.9290647506713867
11-08-1986,7.53125,7.5625,1471200,7.859375,7.859375,3.056680679321289
12-08-1986,7.78125,7.828125,952000,7.984375,7.921875,3.080988883972168
13-08-1986,7.921875,7.921875,2211200,8.25,8.1875,3.1842942237854004
14-08-1986,8.203125,8.234375,1181600,8.28125,8.234375,3.202526330947876
15-08-1986,8.15625,8.3125,1148000,8.3125,8.265625,3.2146806716918945
18-08-1986,8.125,8.25,1219200,8.25,8.21875,3.196446418762207
19-08-1986,8.171875,8.1875,1656000,8.203125,8.171875,3.1782193183898926
20-08-1986,8.1875,8.203125,1321600,8.359375,8.359375,3.251141309738159
21-08-1986,8.34375,8.375,1935200,8.5,8.4375,3.2815237045288086
22-08-1986,8.34375,8.46875,779200,8.46875,8.375,3.2572181224823
25-08-1986,8.28125,8.34375,586400,8.359375,8.296875,3.2268331050872803
26-08-1986,8.296875,8.296875,1156800,8.5,8.46875,3.2936816215515137
27-08-1986,8.4375,8.453125,981600,8.53125,8.53125,3.3179876804351807
28-08-1986,8.5,8.53125,1001600,8.671875,8.640625,3.3605246543884277
29-08-1986,8.59375,8.59375,3828000,8.796875,8.71875,3.3909106254577637
02-09-1986,8.453125,8.71875,1000000,8.71875,8.46875,3.2936816215515137
03-09-1986,8.375,8.46875,1630400,8.625,8.625,3.3544487953186035
04-09-1986,8.640625,8.65625,2874400,9.0,8.890625,3.4577553272247314
05-09-1986,8.625,8.875,1639200,8.921875,8.671875,3.3726797103881836
08-09-1986,8.515625,8.59375,1348000,8.78125,8.75,3.4030632972717285
09-09-1986,8.625,8.78125,1900800,8.859375,8.65625,3.3666036128997803
10-09-1986,8.5625,8.65625,1460000,8.8125,8.8125,3.427372455596924
11-09-1986,8.4375,8.8125,2055200,8.8125,8.46875,3.2936816215515137
12-09-1986,8.1875,8.484375,2328800,8.5,8.34375,3.2450640201568604
15-09-1986,8.390625,8.46875,1860800,8.484375,8.4375,3.2815237045288086
16-09-1986,8.375,8.4375,1300800,8.484375,8.453125,3.2876017093658447
17-09-1986,8.34375,8.453125,1265600,8.484375,8.34375,3.2450640201568604
18-09-1986,8.3125,8.34375,861600,8.40625,8.359375,3.251141309738159
19-09-1986,8.28125,8.359375,1069600,8.421875,8.421875,3.2754507064819336
22-09-1986,8.34375,8.390625,415200,8.4375,8.421875,3.2754507064819336
23-09-1986,8.421875,8.4375,1432800,8.546875,8.546875,3.324061632156372
24-09-1986,8.390625,8.5,820800,8.5625,8.5625,3.3301408290863037
25-09-1986,8.3125,8.5625,1181600,8.5625,8.375,3.2572181224823
26-09-1986,8.25,8.34375,456000,8.359375,8.3125,3.2329113483428955
29-09-1986,7.9375,8.28125,1515200,8.28125,8.0,3.111372947692871
30-09-1986,7.96875,7.96875,930400,8.0625,8.015625,3.1174497604370117
01-10-1986,8.015625,8.046875,1239200,8.1875,8.125,3.1599886417388916
02-10-1986,8.109375,8.171875,648800,8.203125,8.109375,3.15390944480896
03-10-1986,8.015625,8.078125,416000,8.1875,8.078125,3.1417572498321533
06-10-1986,8.03125,8.046875,403200,8.15625,8.0625,3.1356797218322754
07-10-1986,8.046875,8.078125,541600,8.140625,8.078125,3.1417572498321533
08-10-1986,8.078125,8.109375,1105600,8.21875,8.1875,3.1842942237854004
09-10-1986,8.21875,8.21875,1460800,8.28125,8.21875,3.196446418762207
