Date,Low,Open,Volume,High,Close,Adjusted Close
04-10-1989,2.4375,2.46875,20636000,2.546875,2.5,1.8233743906021118
05-10-1989,2.5,2.515625,6453600,2.625,2.578125,1.880354881286621
06-10-1989,2.546875,2.59375,2755200,2.625,2.546875,1.8575632572174072
09-10-1989,2.5,2.546875,1084000,2.546875,2.546875,1.8575632572174072
10-10-1989,2.5,2.5625,1493600,2.5625,2.53125,1.8461663722991943
11-10-1989,2.46875,2.5,1260000,2.515625,2.515625,1.8347707986831665
12-10-1989,2.515625,2.515625,602400,2.546875,2.53125,1.8461663722991943
13-10-1989,2.46875,2.53125,3970400,2.53125,2.484375,1.8119796514511108
16-10-1989,2.375,2.375,3924800,2.46875,2.46875,1.8005818128585815
17-10-1989,2.4375,2.4375,1843200,2.5,2.5,1.8233743906021118
18-10-1989,2.484375,2.5,1128000,2.5625,2.546875,1.8575632572174072
19-10-1989,2.53125,2.53125,1040000,2.546875,2.546875,1.8575632572174072
20-10-1989,2.515625,2.53125,237600,2.53125,2.53125,1.8461663722991943
23-10-1989,2.546875,2.546875,87200,2.5625,2.546875,1.8575632572174072
24-10-1989,2.53125,2.546875,689600,2.5625,2.5625,1.8689582347869873
25-10-1989,2.515625,2.546875,608000,2.578125,2.546875,1.8575632572174072
26-10-1989,2.546875,2.546875,228800,2.5625,2.546875,1.8575632572174072
27-10-1989,2.5,2.546875,456000,2.546875,2.515625,1.8347707986831665
30-10-1989,2.5,2.515625,250400,2.515625,2.5,1.8233743906021118
31-10-1989,2.5,2.5,424800,2.515625,2.5,1.8233743906021118
01-11-1989,2.515625,2.515625,715200,2.5625,2.5625,1.8689582347869873
02-11-1989,2.59375,2.59375,130400,2.640625,2.640625,1.9259406328201294
03-11-1989,2.625,2.625,1118400,2.75,2.734375,1.9943156242370605
06-11-1989,2.578125,2.71875,264800,2.71875,2.578125,1.880354881286621
07-11-1989,2.5,2.546875,727200,2.6875,2.6875,1.9601280689239502
08-11-1989,2.671875,2.6875,236800,2.71875,2.71875,1.9829201698303223
09-11-1989,2.6875,2.71875,60800,2.71875,2.6875,1.9601280689239502
10-11-1989,2.546875,2.6875,210400,2.6875,2.5625,1.8689582347869873
13-11-1989,2.515625,2.5625,92800,2.5625,2.546875,1.8575632572174072
14-11-1989,2.484375,2.578125,428000,2.578125,2.53125,1.8461663722991943
15-11-1989,2.53125,2.546875,176000,2.578125,2.5625,1.8689582347869873
16-11-1989,2.546875,2.546875,301600,2.59375,2.59375,1.8917516469955444
17-11-1989,2.59375,2.59375,249600,2.640625,2.640625,1.9259406328201294
20-11-1989,2.609375,2.65625,43200,2.65625,2.609375,1.9031476974487305
21-11-1989,2.59375,2.59375,108800,2.671875,2.671875,1.9487316608428955
22-11-1989,2.6875,2.6875,255200,2.75,2.75,2.005711078643799
24-11-1989,2.78125,2.78125,572000,2.953125,2.921875,2.131070852279663
27-11-1989,2.859375,2.90625,253600,2.9375,2.875,2.096881628036499
28-11-1989,2.828125,2.875,560000,2.875,2.828125,2.062692880630493
29-11-1989,2.78125,2.8125,60800,2.8125,2.796875,2.039900064468384
30-11-1989,2.8125,2.8125,712800,2.90625,2.890625,2.108276844024658
01-12-1989,2.890625,2.890625,356800,2.953125,2.90625,2.1196718215942383
04-12-1989,2.875,2.9375,172000,2.984375,2.984375,2.1766533851623535
05-12-1989,2.90625,2.953125,93600,2.984375,2.90625,2.1196718215942383
06-12-1989,2.90625,2.90625,668800,3.0,2.984375,2.1766533851623535
07-12-1989,2.921875,2.984375,215200,2.984375,2.953125,2.1538608074188232
08-12-1989,2.921875,2.921875,122400,2.953125,2.953125,2.1538608074188232
11-12-1989,2.9375,2.96875,306400,3.03125,3.0,2.188051223754883
12-12-1989,2.984375,3.015625,1119200,3.03125,3.015625,2.1994457244873047
13-12-1989,2.984375,3.0,400000,3.15625,3.15625,2.3020102977752686
14-12-1989,3.109375,3.125,391200,3.140625,3.125,2.279219627380371
15-12-1989,3.09375,3.140625,155200,3.140625,3.109375,2.2678229808807373
18-12-1989,3.03125,3.078125,224000,3.125,3.03125,2.2108426094055176
19-12-1989,3.03125,3.03125,215200,3.0625,3.0625,2.2336337566375732
20-12-1989,3.046875,3.0625,166400,3.109375,3.078125,2.245030164718628
21-12-1989,3.0625,3.109375,174400,3.125,3.109375,2.2678229808807373
22-12-1989,3.109375,3.125,173600,3.125,3.125,2.279219627380371
26-12-1989,3.078125,3.109375,97600,3.109375,3.078125,2.245030164718628
27-12-1989,3.03125,3.0625,144000,3.0625,3.03125,2.2108426094055176
28-12-1989,3.03125,3.046875,11200,3.046875,3.03125,2.2108426094055176
29-12-1989,3.015625,3.03125,219200,3.15625,3.15625,2.3020102977752686
02-01-1990,3.03125,3.125,194400,3.125,3.046875,2.2222378253936768
03-01-1990,3.03125,3.0625,361600,3.0625,3.03125,2.2108426094055176
04-01-1990,2.953125,3.03125,166400,3.0625,2.953125,2.1538608074188232
05-01-1990,2.859375,2.9375,100800,2.9375,2.90625,2.1196718215942383
08-01-1990,2.84375,2.875,880800,2.890625,2.859375,2.0854849815368652
09-01-1990,2.8125,2.828125,282400,2.84375,2.8125,2.0512964725494385
10-01-1990,2.6875,2.765625,784000,2.765625,2.703125,1.9759148359298706
11-01-1990,2.703125,2.71875,347200,2.765625,2.75,2.010179042816162
12-01-1990,2.6875,2.71875,159200,2.734375,2.71875,1.9873359203338623
15-01-1990,2.71875,2.734375,25600,2.734375,2.71875,1.9873359203338623
16-01-1990,2.625,2.6875,172800,2.703125,2.703125,1.9759148359298706
17-01-1990,2.71875,2.71875,216000,2.8125,2.71875,1.9873359203338623
18-01-1990,2.6875,2.6875,157600,2.71875,2.703125,1.9759148359298706
19-01-1990,2.734375,2.734375,8800,2.75,2.75,2.010179042816162
22-01-1990,2.71875,2.734375,56800,2.75,2.734375,1.9987577199935913
23-01-1990,2.734375,2.765625,101600,2.765625,2.75,2.010179042816162
24-01-1990,2.6875,2.734375,26400,2.734375,2.6875,1.9644943475723267
25-01-1990,2.671875,2.6875,249600,2.71875,2.71875,1.9873359203338623
26-01-1990,2.671875,2.703125,45600,2.71875,2.671875,1.9530720710754395
29-01-1990,2.625,2.6875,444000,2.6875,2.640625,1.93022882938385
30-01-1990,2.578125,2.625,548000,2.65625,2.65625,1.9416513442993164
31-01-1990,2.6875,2.6875,757600,2.859375,2.859375,2.0901293754577637
01-02-1990,2.84375,2.875,149600,2.875,2.859375,2.0901293754577637
02-02-1990,2.875,2.875,720000,2.90625,2.875,2.101550817489624
05-02-1990,2.875,2.90625,163200,2.90625,2.875,2.101550817489624
06-02-1990,2.84375,2.875,99200,2.90625,2.890625,2.1129727363586426
07-02-1990,2.90625,2.90625,32800,2.9375,2.9375,2.1472387313842773
08-02-1990,2.96875,2.96875,346400,3.125,3.046875,2.2271878719329834
09-02-1990,2.96875,3.078125,179200,3.125,3.0,2.192923069000244
12-02-1990,2.90625,3.0,28000,3.0,2.90625,2.1243934631347656
13-02-1990,2.9375,2.9375,26400,2.953125,2.953125,2.158658981323242
14-02-1990,2.9375,2.953125,32800,2.96875,2.9375,2.1472387313842773
15-02-1990,2.953125,2.953125,152000,2.96875,2.953125,2.158658981323242
16-02-1990,2.96875,2.96875,32000,2.96875,2.96875,2.1700801849365234
20-02-1990,2.953125,2.984375,23200,2.984375,2.953125,2.158658981323242
21-02-1990,2.90625,2.953125,553600,2.953125,2.90625,2.1243934631347656
22-02-1990,2.84375,2.90625,148000,2.90625,2.84375,2.0787086486816406
23-02-1990,2.6875,2.78125,575200,2.78125,2.71875,1.9873359203338623
26-02-1990,2.734375,2.734375,477600,2.75,2.75,2.010179042816162
27-02-1990,2.765625,2.765625,357600,2.84375,2.84375,2.0787086486816406
28-02-1990,2.796875,2.8125,145600,2.828125,2.796875,2.044442653656006
01-03-1990,2.75,2.796875,225600,2.796875,2.75,2.010179042816162
02-03-1990,2.6875,2.75,931200,2.78125,2.703125,1.9759148359298706
05-03-1990,2.65625,2.671875,146400,2.703125,2.671875,1.9530720710754395
06-03-1990,2.625,2.671875,258400,2.734375,2.734375,1.9987577199935913
07-03-1990,2.703125,2.734375,174400,2.75,2.75,2.010179042816162
08-03-1990,2.734375,2.75,146400,2.796875,2.78125,2.033022165298462
09-03-1990,2.734375,2.75,194400,2.78125,2.734375,1.9987577199935913
12-03-1990,2.625,2.703125,1072800,2.71875,2.6875,1.9644943475723267
13-03-1990,2.671875,2.671875,662400,2.6875,2.6875,1.9644943475723267
14-03-1990,2.671875,2.671875,298400,2.765625,2.765625,2.0216012001037598
15-03-1990,2.71875,2.78125,192000,2.796875,2.71875,1.9873359203338623
16-03-1990,2.734375,2.75,271200,2.78125,2.78125,2.033022165298462
19-03-1990,2.75,2.75,476000,2.765625,2.765625,2.0216012001037598
20-03-1990,2.75,2.75,898400,2.90625,2.796875,2.044442653656006
21-03-1990,2.796875,2.796875,102400,2.8125,2.796875,2.044442653656006
22-03-1990,2.75,2.75,177600,2.765625,2.765625,2.0216012001037598
23-03-1990,2.796875,2.796875,320000,2.796875,2.796875,2.044442653656006
26-03-1990,2.75,2.78125,37600,2.78125,2.75,2.010179042816162
27-03-1990,2.734375,2.734375,24000,2.75,2.75,2.010179042816162
28-03-1990,2.84375,2.84375,706400,2.9375,2.921875,2.135815382003784
29-03-1990,2.890625,2.921875,361600,2.9375,2.90625,2.1243934631347656
30-03-1990,2.921875,2.921875,161600,2.921875,2.921875,2.135815382003784
02-04-1990,2.84375,2.921875,184800,2.921875,2.875,2.101550817489624
03-04-1990,2.875,2.875,358400,3.03125,2.984375,2.181501626968384
04-04-1990,2.90625,2.984375,364800,2.984375,2.90625,2.1243934631347656
05-04-1990,2.90625,2.9375,373600,2.953125,2.90625,2.1243934631347656
06-04-1990,2.78125,2.921875,810400,2.921875,2.78125,2.033022165298462
09-04-1990,2.734375,2.734375,336800,2.765625,2.734375,2.0032589435577393
10-04-1990,2.71875,2.75,426400,2.8125,2.765625,2.026154041290283
11-04-1990,2.71875,2.78125,234400,2.8125,2.734375,2.0032589435577393
12-04-1990,2.59375,2.71875,456000,2.734375,2.625,1.9231288433074951
16-04-1990,2.640625,2.640625,273600,2.734375,2.703125,1.9803658723831177
17-04-1990,2.703125,2.71875,16800,2.71875,2.71875,1.9918111562728882
18-04-1990,2.6875,2.6875,333600,2.75,2.71875,1.9918111562728882
19-04-1990,2.671875,2.71875,207200,2.71875,2.6875,1.968918800354004
20-04-1990,2.65625,2.671875,168800,2.6875,2.671875,1.9574710130691528
23-04-1990,2.625,2.65625,173600,2.65625,2.625,1.9231288433074951
24-04-1990,2.625,2.625,458400,2.671875,2.625,1.9231288433074951
25-04-1990,2.640625,2.65625,104000,2.671875,2.65625,1.9460245370864868
26-04-1990,2.625,2.625,461600,2.6875,2.6875,1.968918800354004
27-04-1990,2.6875,2.6875,133600,2.703125,2.703125,1.9803658723831177
30-04-1990,2.6875,2.703125,68800,2.71875,2.71875,1.9918111562728882
01-05-1990,2.6875,2.71875,732800,2.828125,2.8125,2.0604963302612305
02-05-1990,2.765625,2.78125,575200,2.828125,2.8125,2.0604963302612305
03-05-1990,2.828125,2.84375,105600,2.859375,2.828125,2.0719423294067383
04-05-1990,2.78125,2.84375,279200,2.84375,2.78125,2.0376014709472656
07-05-1990,2.78125,2.78125,32800,2.84375,2.84375,2.083390474319458
08-05-1990,2.828125,2.84375,48800,2.84375,2.828125,2.0719423294067383
09-05-1990,2.796875,2.84375,1232800,2.859375,2.796875,2.0490472316741943
10-05-1990,2.796875,2.8125,428000,2.84375,2.796875,2.0490472316741943
11-05-1990,2.828125,2.828125,172000,2.875,2.875,2.1062846183776855
14-05-1990,2.75,2.890625,2418400,2.890625,2.75,2.0147061347961426
15-05-1990,2.75,2.78125,5804800,2.828125,2.8125,2.0604963302612305
16-05-1990,2.8125,2.8125,367200,2.96875,2.90625,2.1291775703430176
17-05-1990,2.921875,2.921875,196000,2.953125,2.953125,2.163520097732544
18-05-1990,2.96875,2.96875,181600,3.0,3.0,2.1978628635406494
21-05-1990,2.921875,2.96875,74400,2.96875,2.953125,2.163520097732544
22-05-1990,2.96875,2.984375,40800,2.984375,2.96875,2.1749677658081055
23-05-1990,2.90625,2.96875,30400,2.96875,2.90625,2.1291775703430176
24-05-1990,2.75,2.921875,483200,2.921875,2.8125,2.0604963302612305
25-05-1990,2.75,2.8125,817600,2.875,2.875,2.1062846183776855
29-05-1990,2.890625,2.890625,60800,2.90625,2.90625,2.1291775703430176
30-05-1990,2.921875,2.9375,129600,2.984375,2.96875,2.1749677658081055
31-05-1990,2.90625,2.9375,143200,2.984375,2.96875,2.1749677658081055
01-06-1990,2.953125,2.96875,47200,2.984375,2.96875,2.1749677658081055
04-06-1990,2.90625,2.9375,68000,2.984375,2.984375,2.1864137649536133
05-06-1990,2.796875,2.984375,1125600,3.0,2.890625,2.1177315711975098
06-06-1990,2.875,2.890625,44000,2.90625,2.875,2.1062846183776855
07-06-1990,2.859375,2.890625,212800,2.890625,2.859375,2.094836950302124
08-06-1990,2.8125,2.875,405600,2.875,2.84375,2.083390474319458
11-06-1990,2.84375,2.859375,48800,2.890625,2.875,2.1062846183776855
12-06-1990,2.859375,2.90625,196000,3.0,2.984375,2.1864137649536133
13-06-1990,2.96875,2.96875,208000,3.09375,2.96875,2.1749677658081055
14-06-1990,2.9375,2.953125,20800,2.984375,2.984375,2.1864137649536133
15-06-1990,2.921875,2.984375,158400,2.984375,2.96875,2.1749677658081055
18-06-1990,2.96875,2.96875,1600,2.96875,2.96875,2.1749677658081055
19-06-1990,2.875,2.9375,174400,2.9375,2.921875,2.1406261920928955
20-06-1990,2.90625,2.953125,127200,2.953125,2.9375,2.1520745754241943
21-06-1990,2.921875,2.921875,6400,2.9375,2.9375,2.1520745754241943
22-06-1990,2.921875,2.9375,356800,2.953125,2.953125,2.163520097732544
25-06-1990,2.90625,2.921875,24800,2.9375,2.921875,2.1406261920928955
26-06-1990,2.859375,2.90625,207200,2.921875,2.921875,2.1406261920928955
27-06-1990,2.921875,2.921875,13600,2.9375,2.921875,2.1406261920928955
28-06-1990,2.9375,2.9375,157600,2.96875,2.96875,2.1749677658081055
29-06-1990,2.953125,2.984375,327200,2.984375,2.96875,2.1749677658081055
02-07-1990,2.875,2.953125,322400,2.953125,2.90625,2.1291775703430176
03-07-1990,2.875,2.9375,308800,2.9375,2.875,2.1062846183776855
05-07-1990,2.8125,2.84375,596800,2.84375,2.828125,2.0719423294067383
06-07-1990,2.78125,2.78125,82400,2.796875,2.796875,2.0490472316741943
09-07-1990,2.75,2.796875,724800,2.8125,2.78125,2.0376014709472656
10-07-1990,2.765625,2.78125,1073600,2.78125,2.78125,2.0421900749206543
11-07-1990,2.78125,2.78125,776000,2.8125,2.796875,2.053663492202759
12-07-1990,2.796875,2.796875,1208800,2.90625,2.875,2.1110291481018066
13-07-1990,2.90625,2.90625,568000,3.0,2.96875,2.1798667907714844
16-07-1990,2.96875,2.984375,680800,3.0,2.96875,2.1798667907714844
17-07-1990,2.921875,2.96875,102400,2.96875,2.921875,2.145447254180908
18-07-1990,2.84375,2.921875,348000,2.921875,2.84375,2.0880823135375977
19-07-1990,2.796875,2.8125,465600,2.875,2.875,2.1110291481018066
20-07-1990,2.890625,2.890625,51200,2.90625,2.890625,2.1225016117095947
23-07-1990,2.859375,2.875,349600,2.9375,2.9375,2.156919479370117
24-07-1990,2.90625,2.90625,353600,3.015625,2.984375,2.1913387775421143
25-07-1990,3.0,3.015625,52000,3.03125,3.03125,2.2257590293884277
26-07-1990,3.03125,3.0625,80000,3.0625,3.0625,2.2487030029296875
27-07-1990,2.984375,3.03125,75200,3.0625,2.984375,2.1913387775421143
30-07-1990,2.984375,3.0,160800,3.0,3.0,2.202812433242798
31-07-1990,2.953125,2.953125,175200,3.015625,3.0,2.202812433242798
01-08-1990,3.0,3.03125,134400,3.0625,3.015625,2.2142860889434814
02-08-1990,3.03125,3.125,1056800,3.171875,3.171875,2.3290162086486816
03-08-1990,3.109375,3.15625,1272000,3.265625,3.203125,2.3519608974456787
06-08-1990,3.125,3.25,247200,3.265625,3.125,2.2945947647094727
07-08-1990,3.125,3.125,148800,3.140625,3.140625,2.306068181991577
08-08-1990,3.09375,3.125,170400,3.140625,3.09375,2.2716503143310547
09-08-1990,3.0625,3.09375,296000,3.09375,3.09375,2.2716503143310547
10-08-1990,3.09375,3.09375,299200,3.109375,3.09375,2.2716503143310547
13-08-1990,3.078125,3.109375,56800,3.125,3.078125,2.2601780891418457
14-08-1990,3.0625,3.109375,49600,3.109375,3.0625,2.2487030029296875
15-08-1990,3.0625,3.0625,196000,3.15625,3.125,2.2945947647094727
16-08-1990,3.078125,3.109375,140000,3.125,3.109375,2.2831223011016846
17-08-1990,3.125,3.140625,201600,3.1875,3.140625,2.306068181991577
20-08-1990,3.046875,3.15625,239200,3.15625,3.046875,2.237231492996216
21-08-1990,3.0625,3.0625,452000,3.09375,3.078125,2.2601780891418457
22-08-1990,3.015625,3.0625,333600,3.09375,3.015625,2.2142860889434814
23-08-1990,2.9375,3.0,364000,3.0,2.96875,2.1798667907714844
24-08-1990,2.921875,2.921875,326400,3.0,3.0,2.202812433242798
27-08-1990,2.953125,3.0,88000,3.0,2.953125,2.16839337348938
28-08-1990,2.953125,2.953125,8000,2.984375,2.984375,2.1913387775421143
29-08-1990,2.9375,3.015625,140800,3.015625,2.9375,2.156919479370117
30-08-1990,2.90625,2.953125,65600,2.984375,2.984375,2.1913387775421143
31-08-1990,2.890625,2.953125,256800,2.984375,2.921875,2.145447254180908
04-09-1990,2.9375,2.9375,20000,2.953125,2.953125,2.16839337348938
05-09-1990,2.953125,2.953125,223200,3.1875,3.171875,2.3290162086486816
06-09-1990,3.1875,3.203125,317600,3.296875,3.296875,2.4207990169525146
07-09-1990,3.296875,3.296875,160800,3.359375,3.359375,2.466689348220825
10-09-1990,3.328125,3.328125,1408800,3.390625,3.359375,2.466689348220825
11-09-1990,3.1875,3.375,963200,3.375,3.3125,2.4322729110717773
12-09-1990,3.265625,3.34375,336000,3.34375,3.3125,2.4322729110717773
13-09-1990,3.25,3.3125,405600,3.328125,3.25,2.3863797187805176
14-09-1990,3.25,3.25,209600,3.390625,3.390625,2.489636182785034
17-09-1990,3.375,3.390625,1116000,3.46875,3.46875,2.547001361846924
18-09-1990,3.46875,3.46875,776800,3.765625,3.671875,2.696150541305542
19-09-1990,3.65625,3.6875,1624800,3.6875,3.65625,2.6846776008605957
20-09-1990,3.53125,3.65625,432000,3.65625,3.53125,2.5928940773010254
21-09-1990,3.46875,3.484375,521600,3.5625,3.5625,2.6158387660980225
24-09-1990,3.484375,3.5625,112800,3.5625,3.515625,2.5814208984375
25-09-1990,3.5,3.5,221600,3.515625,3.515625,2.5814208984375
26-09-1990,3.453125,3.515625,55200,3.515625,3.46875,2.547001361846924
27-09-1990,3.375,3.4375,72800,3.453125,3.375,2.4781644344329834
28-09-1990,3.28125,3.375,163200,3.375,3.34375,2.455217123031616
01-10-1990,3.296875,3.328125,455200,3.390625,3.34375,2.455217123031616
02-10-1990,3.328125,3.359375,72000,3.359375,3.359375,2.466689348220825
03-10-1990,3.3125,3.34375,26400,3.34375,3.34375,2.455217123031616
04-10-1990,3.25,3.34375,313600,3.34375,3.25,2.3863797187805176
05-10-1990,3.1875,3.234375,550400,3.296875,3.1875,2.3404886722564697
08-10-1990,3.1875,3.203125,411200,3.234375,3.1875,2.3404886722564697
09-10-1990,3.203125,3.203125,298400,3.375,3.34375,2.460041046142578
10-10-1990,3.21875,3.34375,200000,3.34375,3.234375,2.379572868347168
11-10-1990,3.203125,3.25,34400,3.25,3.21875,2.3680784702301025
12-10-1990,3.171875,3.1875,89600,3.203125,3.203125,2.356581926345825
15-10-1990,3.15625,3.203125,36800,3.203125,3.15625,2.3220956325531006
16-10-1990,3.109375,3.140625,153600,3.15625,3.109375,2.2876076698303223
17-10-1990,3.09375,3.109375,11200,3.125,3.125,2.2991037368774414
18-10-1990,3.109375,3.109375,113600,3.125,3.109375,2.2876076698303223
19-10-1990,3.078125,3.109375,36800,3.109375,3.09375,2.276113986968994
22-10-1990,3.0625,3.109375,68000,3.109375,3.0625,2.2531213760375977
23-10-1990,3.0625,3.0625,17600,3.109375,3.109375,2.2876076698303223
24-10-1990,3.125,3.125,120000,3.15625,3.15625,2.3220956325531006
25-10-1990,3.1875,3.1875,112800,3.328125,3.328125,2.4485461711883545
26-10-1990,3.3125,3.3125,22400,3.359375,3.359375,2.471536159515381
29-10-1990,3.359375,3.375,16000,3.375,3.359375,2.471536159515381
30-10-1990,3.28125,3.34375,29600,3.359375,3.296875,2.4255549907684326
31-10-1990,3.3125,3.3125,366400,3.453125,3.375,2.4830329418182373
01-11-1990,3.359375,3.375,163200,3.375,3.375,2.4830329418182373
02-11-1990,3.375,3.375,469600,3.53125,3.5,2.5749971866607666
05-11-1990,3.46875,3.53125,426400,3.546875,3.46875,2.5520060062408447
06-11-1990,3.421875,3.484375,8800,3.484375,3.421875,2.517519235610962
07-11-1990,3.375,3.421875,148000,3.421875,3.375,2.4830329418182373
08-11-1990,3.34375,3.34375,37600,3.390625,3.390625,2.4945273399353027
09-11-1990,3.375,3.375,397600,3.4375,3.421875,2.517519235610962
12-11-1990,3.328125,3.390625,76800,3.390625,3.328125,2.4485461711883545
13-11-1990,3.109375,3.15625,208000,3.15625,3.109375,2.2876076698303223
14-11-1990,3.109375,3.125,75200,3.1875,3.1875,2.3450865745544434
15-11-1990,3.125,3.15625,45600,3.171875,3.140625,2.310598611831665
16-11-1990,3.09375,3.140625,300800,3.15625,3.15625,2.3220956325531006
19-11-1990,2.984375,3.15625,456800,3.15625,2.984375,2.1956441402435303
20-11-1990,2.84375,2.96875,329600,2.96875,2.921875,2.149662494659424
21-11-1990,2.890625,2.90625,32800,2.96875,2.96875,2.1841495037078857
23-11-1990,2.96875,2.96875,18400,2.984375,2.96875,2.1841495037078857
26-11-1990,2.96875,2.984375,40000,3.0,2.96875,2.1841495037078857
27-11-1990,2.9375,2.984375,39200,2.984375,2.953125,2.17265248298645
28-11-1990,2.90625,2.953125,145600,2.953125,2.921875,2.149662494659424
29-11-1990,2.90625,2.90625,36800,2.90625,2.90625,2.1381664276123047
30-11-1990,2.765625,2.875,236000,2.890625,2.8125,2.0691945552825928
03-12-1990,2.609375,2.796875,366400,2.796875,2.75,2.0232114791870117
04-12-1990,2.671875,2.734375,230400,2.734375,2.71875,2.000220537185669
05-12-1990,2.71875,2.71875,432000,2.796875,2.78125,2.0462026596069336
06-12-1990,2.734375,2.78125,248800,2.8125,2.75,2.0232114791870117
07-12-1990,2.625,2.71875,257600,2.71875,2.71875,2.000220537185669
10-12-1990,2.703125,2.734375,179200,2.734375,2.71875,2.000220537185669
11-12-1990,2.703125,2.703125,981600,2.78125,2.734375,2.0117154121398926
12-12-1990,2.734375,2.75,493600,2.78125,2.78125,2.0462026596069336
13-12-1990,2.71875,2.75,908000,2.75,2.71875,2.000220537185669
14-12-1990,2.65625,2.71875,207200,2.78125,2.78125,2.0462026596069336
17-12-1990,2.734375,2.796875,89600,2.828125,2.734375,2.0117154121398926
18-12-1990,2.703125,2.765625,153600,2.796875,2.703125,1.988724946975708
19-12-1990,2.640625,2.703125,277600,2.734375,2.640625,1.9427435398101807
20-12-1990,2.546875,2.609375,1007200,2.609375,2.5625,1.8852652311325073
21-12-1990,2.484375,2.484375,980000,2.515625,2.5,1.8392837047576904
24-12-1990,2.5,2.5,222400,2.546875,2.546875,1.8737704753875732
26-12-1990,2.5625,2.5625,93600,2.75,2.75,2.0232114791870117
27-12-1990,2.71875,2.75,51200,2.75,2.734375,2.0117154121398926
28-12-1990,2.65625,2.71875,49600,2.71875,2.65625,1.9542392492294312
31-12-1990,2.53125,2.65625,364800,2.65625,2.65625,1.9542392492294312
02-01-1991,2.59375,2.625,36000,2.625,2.59375,1.908258080482483
03-01-1991,2.484375,2.59375,413600,2.59375,2.484375,1.8277878761291504
04-01-1991,2.328125,2.4375,216800,2.4375,2.328125,1.7128324508666992
07-01-1991,2.21875,2.296875,599200,2.3125,2.265625,1.6668511629104614
08-01-1991,2.15625,2.25,679200,2.265625,2.15625,1.5863819122314453
09-01-1991,2.140625,2.171875,572000,2.1875,2.140625,1.5794650316238403
10-01-1991,2.09375,2.125,296000,2.140625,2.140625,1.5794650316238403
11-01-1991,2.109375,2.109375,278400,2.21875,2.21875,1.637109398841858
14-01-1991,2.21875,2.234375,172800,2.265625,2.25,1.6601670980453491
15-01-1991,2.171875,2.25,92800,2.25,2.234375,1.6486378908157349
16-01-1991,2.171875,2.234375,50400,2.25,2.203125,1.6255807876586914
17-01-1991,2.03125,2.1875,1341600,2.25,2.203125,1.6255807876586914
18-01-1991,2.15625,2.203125,275200,2.21875,2.1875,1.6140519380569458
21-01-1991,2.0625,2.15625,550400,2.15625,2.125,1.567935585975647
22-01-1991,2.125,2.15625,174400,2.171875,2.125,1.567935585975647
23-01-1991,2.140625,2.140625,837600,2.265625,2.25,1.6601670980453491
24-01-1991,2.265625,2.3125,495200,2.34375,2.28125,1.6832255125045776
25-01-1991,2.21875,2.3125,817600,2.375,2.25,1.6601670980453491
28-01-1991,2.203125,2.28125,679200,2.296875,2.234375,1.6486378908157349
29-01-1991,2.25,2.25,99200,2.265625,2.25,1.6601670980453491
30-01-1991,2.203125,2.21875,132000,2.25,2.234375,1.6486378908157349
31-01-1991,2.15625,2.21875,384800,2.21875,2.171875,1.6025217771530151
01-02-1991,2.15625,2.15625,869600,2.21875,2.21875,1.637109398841858
04-02-1991,2.203125,2.21875,961600,2.28125,2.25,1.6601670980453491
05-02-1991,2.25,2.25,1217600,2.375,2.28125,1.6832255125045776
06-02-1991,2.28125,2.28125,1186400,2.5,2.484375,1.8331009149551392
07-02-1991,2.546875,2.546875,1224000,2.78125,2.6875,1.9829790592193604
08-02-1991,2.640625,2.65625,94400,2.6875,2.671875,1.9714481830596924
11-02-1991,2.640625,2.6875,307200,2.75,2.703125,1.9945060014724731
12-02-1991,2.59375,2.734375,216000,2.734375,2.59375,1.9138047695159912
13-02-1991,2.625,2.625,45600,2.703125,2.703125,1.9945060014724731
14-02-1991,2.515625,2.6875,148800,2.6875,2.515625,1.8561586141586304
15-02-1991,2.484375,2.484375,356800,2.609375,2.609375,1.9253324270248413
19-02-1991,2.515625,2.59375,160800,2.59375,2.546875,1.8792170286178589
20-02-1991,2.515625,2.546875,219200,2.625,2.625,1.9368610382080078
21-02-1991,2.59375,2.609375,188000,2.625,2.59375,1.9138047695159912
22-02-1991,2.453125,2.59375,408000,2.59375,2.453125,1.8100436925888062
25-02-1991,2.328125,2.453125,88800,2.453125,2.328125,1.7178115844726562
26-02-1991,2.265625,2.3125,776800,2.328125,2.3125,1.7062824964523315
27-02-1991,2.34375,2.34375,1544000,2.453125,2.4375,1.7985154390335083
28-02-1991,2.453125,2.46875,578400,2.59375,2.59375,1.9138047695159912
01-03-1991,2.53125,2.59375,692800,2.59375,2.546875,1.8792170286178589
04-03-1991,2.546875,2.546875,555200,2.609375,2.59375,1.9138047695159912
05-03-1991,2.5625,2.5625,418400,2.578125,2.578125,1.902274489402771
06-03-1991,2.546875,2.546875,180800,2.59375,2.5625,1.890745997428894
07-03-1991,2.5625,2.5625,280800,2.625,2.625,1.9368610382080078
08-03-1991,2.59375,2.625,442400,2.78125,2.671875,1.9714481830596924
11-03-1991,2.6875,2.6875,116000,2.75,2.71875,2.006035089492798
12-03-1991,2.6875,2.75,163200,2.75,2.6875,1.9829790592193604
13-03-1991,2.59375,2.671875,147200,2.671875,2.59375,1.9138047695159912
14-03-1991,2.546875,2.578125,184000,2.59375,2.5625,1.890745997428894
15-03-1991,2.546875,2.546875,289600,2.65625,2.625,1.9368610382080078
18-03-1991,2.625,2.640625,136000,2.6875,2.6875,1.9829790592193604
19-03-1991,2.609375,2.65625,172000,2.65625,2.625,1.9368610382080078
20-03-1991,2.625,2.625,71200,2.65625,2.65625,1.959919810295105
21-03-1991,2.65625,2.671875,327200,2.734375,2.734375,2.0175647735595703
22-03-1991,2.703125,2.734375,93600,2.734375,2.703125,1.9945060014724731
25-03-1991,2.640625,2.71875,115200,2.71875,2.703125,1.9945060014724731
26-03-1991,2.625,2.671875,447200,2.6875,2.65625,1.959919810295105
27-03-1991,2.578125,2.640625,86400,2.640625,2.578125,1.902274489402771
28-03-1991,2.515625,2.578125,70400,2.59375,2.515625,1.8561586141586304
01-04-1991,2.453125,2.53125,128000,2.53125,2.453125,1.8100436925888062
02-04-1991,2.359375,2.46875,367200,2.46875,2.375,1.7523988485336304
03-04-1991,2.3125,2.359375,1358400,2.4375,2.3125,1.7062824964523315
04-04-1991,2.34375,2.34375,1049600,2.40625,2.40625,1.7754549980163574
05-04-1991,2.421875,2.421875,73600,2.484375,2.484375,1.8331009149551392
08-04-1991,2.4375,2.46875,24000,2.46875,2.4375,1.7985154390335083
09-04-1991,2.375,2.40625,198400,2.4375,2.4375,1.7985154390335083
10-04-1991,2.34375,2.421875,198400,2.421875,2.390625,1.7684619426727295
11-04-1991,2.359375,2.40625,255200,2.4375,2.40625,1.780019760131836
12-04-1991,2.390625,2.40625,398400,2.46875,2.46875,1.826254963874817
15-04-1991,2.5,2.5,258400,2.5625,2.546875,1.8840479850769043
16-04-1991,2.53125,2.53125,468000,2.640625,2.625,1.9418394565582275
17-04-1991,2.578125,2.640625,662400,2.640625,2.578125,1.9071649312973022
18-04-1991,2.609375,2.609375,68800,2.640625,2.625,1.9418394565582275
19-04-1991,2.5625,2.609375,20000,2.625,2.578125,1.9071649312973022
22-04-1991,2.484375,2.578125,263200,2.578125,2.5,1.8493722677230835
23-04-1991,2.453125,2.484375,69600,2.5,2.5,1.8493722677230835
24-04-1991,2.46875,2.5,44800,2.5,2.5,1.8493722677230835
25-04-1991,2.46875,2.484375,70400,2.484375,2.46875,1.826254963874817
26-04-1991,2.421875,2.453125,24000,2.453125,2.4375,1.803139090538025
29-04-1991,2.34375,2.421875,373600,2.421875,2.34375,1.7337876558303833
30-04-1991,2.328125,2.375,1024800,2.375,2.375,1.7569037675857544
01-05-1991,2.34375,2.375,403200,2.421875,2.421875,1.791579008102417
02-05-1991,2.375,2.40625,714400,2.40625,2.375,1.7569037675857544
03-05-1991,2.359375,2.40625,464000,2.4375,2.390625,1.7684619426727295
06-05-1991,2.359375,2.375,11200,2.375,2.359375,1.7453444004058838
07-05-1991,2.28125,2.375,360800,2.375,2.34375,1.7337876558303833
08-05-1991,2.328125,2.34375,567200,2.453125,2.4375,1.803139090538025
09-05-1991,2.40625,2.453125,150400,2.46875,2.46875,1.826254963874817
10-05-1991,2.375,2.453125,88800,2.453125,2.375,1.7569037675857544
13-05-1991,2.28125,2.359375,872000,2.359375,2.28125,1.6875524520874023
14-05-1991,2.28125,2.28125,366400,2.375,2.3125,1.710668921470642
15-05-1991,2.3125,2.3125,276000,2.40625,2.390625,1.7684619426727295
16-05-1991,2.421875,2.453125,404000,2.46875,2.421875,1.791579008102417
17-05-1991,2.390625,2.421875,25600,2.421875,2.40625,1.780019760131836
20-05-1991,2.390625,2.40625,121600,2.4375,2.40625,1.780019760131836
21-05-1991,2.34375,2.4375,480800,2.4375,2.375,1.7569037675857544
22-05-1991,2.375,2.375,31200,2.390625,2.390625,1.7684619426727295
23-05-1991,2.375,2.40625,240800,2.421875,2.40625,1.780019760131836
24-05-1991,2.375,2.421875,160800,2.453125,2.390625,1.7684619426727295
28-05-1991,2.375,2.375,60000,2.453125,2.4375,1.803139090538025
29-05-1991,2.421875,2.4375,334400,2.4375,2.4375,1.803139090538025
30-05-1991,2.421875,2.4375,521600,2.5,2.5,1.8493722677230835
31-05-1991,2.53125,2.53125,1612000,2.625,2.625,1.9418394565582275
03-06-1991,2.609375,2.65625,256000,2.6875,2.625,1.9418394565582275
04-06-1991,2.625,2.65625,1272800,2.671875,2.625,1.9418394565582275
05-06-1991,2.578125,2.625,141600,2.625,2.578125,1.9071649312973022
06-06-1991,2.5625,2.5625,201600,2.609375,2.59375,1.9187250137329102
07-06-1991,2.53125,2.59375,473600,2.59375,2.53125,1.872489333152771
10-06-1991,2.53125,2.546875,168000,2.5625,2.53125,1.872489333152771
11-06-1991,2.4375,2.53125,155200,2.53125,2.5,1.8493722677230835
12-06-1991,2.484375,2.5,51200,2.5,2.5,1.8493722677230835
13-06-1991,2.484375,2.5,1600,2.5,2.484375,1.837813377380371
14-06-1991,2.46875,2.46875,83200,2.46875,2.46875,1.826254963874817
17-06-1991,2.453125,2.46875,21600,2.46875,2.453125,1.8146971464157104
18-06-1991,2.4375,2.46875,341600,2.46875,2.46875,1.826254963874817
19-06-1991,2.46875,2.46875,170400,2.5,2.5,1.8493722677230835
20-06-1991,2.375,2.4375,30400,2.4375,2.375,1.7569037675857544
21-06-1991,2.3125,2.34375,251200,2.375,2.34375,1.7337876558303833
24-06-1991,2.3125,2.359375,124800,2.375,2.375,1.7569037675857544
25-06-1991,2.359375,2.375,39200,2.375,2.359375,1.7453444004058838
26-06-1991,2.296875,2.328125,188000,2.359375,2.3125,1.710668921470642
27-06-1991,2.28125,2.3125,260800,2.34375,2.3125,1.710668921470642
28-06-1991,2.25,2.3125,418400,2.3125,2.25,1.6644349098205566
01-07-1991,2.203125,2.25,188800,2.25,2.203125,1.6297599077224731
02-07-1991,2.21875,2.21875,127200,2.25,2.234375,1.6528762578964233
03-07-1991,2.203125,2.203125,267200,2.28125,2.25,1.6644349098205566
05-07-1991,2.25,2.25,3200,2.25,2.25,1.6644349098205566
08-07-1991,2.25,2.25,192800,2.296875,2.296875,1.699109673500061
09-07-1991,2.234375,2.28125,359200,2.3125,2.265625,1.6805673837661743
10-07-1991,2.234375,2.25,56000,2.25,2.234375,1.657386064529419
11-07-1991,2.25,2.25,152800,2.328125,2.3125,1.7153372764587402
12-07-1991,2.28125,2.34375,1025600,2.359375,2.296875,1.7037466764450073
15-07-1991,2.328125,2.328125,791200,2.375,2.375,1.7616971731185913
16-07-1991,2.34375,2.359375,1204800,2.421875,2.421875,1.7964669466018677
17-07-1991,2.4375,2.453125,1052000,2.59375,2.59375,1.923959493637085
18-07-1991,2.625,2.625,304800,2.671875,2.671875,1.9819087982177734
19-07-1991,2.609375,2.671875,73600,2.671875,2.625,1.9471385478973389
22-07-1991,2.5625,2.625,72000,2.625,2.59375,1.923959493637085
23-07-1991,2.578125,2.609375,124000,2.625,2.578125,1.9123682975769043
24-07-1991,2.578125,2.578125,39200,2.59375,2.578125,1.9123682975769043
25-07-1991,2.5625,2.5625,232800,2.578125,2.5625,1.9007781744003296
26-07-1991,2.5625,2.5625,226400,2.59375,2.59375,1.923959493637085
29-07-1991,2.59375,2.609375,6400,2.609375,2.609375,1.9355491399765015
30-07-1991,2.59375,2.59375,582400,2.65625,2.625,1.9471385478973389
31-07-1991,2.53125,2.5625,698400,2.578125,2.53125,1.8775984048843384
01-08-1991,2.53125,2.53125,248800,2.578125,2.5625,1.9007781744003296
02-08-1991,2.546875,2.546875,71200,2.546875,2.546875,1.889188289642334
05-08-1991,2.546875,2.5625,96800,2.578125,2.5625,1.9007781744003296
06-08-1991,2.5625,2.5625,457600,2.625,2.59375,1.923959493637085
07-08-1991,2.59375,2.59375,733600,2.625,2.625,1.9471385478973389
08-08-1991,2.625,2.640625,413600,2.6875,2.640625,1.958728551864624
09-08-1991,2.625,2.625,111200,2.65625,2.65625,1.970319390296936
12-08-1991,2.640625,2.6875,223200,2.703125,2.65625,1.970319390296936
13-08-1991,2.640625,2.640625,118400,2.6875,2.6875,1.9934998750686646
14-08-1991,2.671875,2.671875,372000,2.75,2.75,2.0398597717285156
15-08-1991,2.71875,2.75,369600,2.75,2.75,2.0398597717285156
16-08-1991,2.703125,2.734375,490400,2.734375,2.703125,2.0050904750823975
19-08-1991,2.609375,2.671875,91200,2.671875,2.609375,1.9355491399765015
20-08-1991,2.609375,2.609375,22400,2.625,2.625,1.9471385478973389
21-08-1991,2.609375,2.625,78400,2.625,2.625,1.9471385478973389
22-08-1991,2.5625,2.640625,292800,2.640625,2.59375,1.923959493637085
23-08-1991,2.59375,2.59375,1125600,2.75,2.75,2.0398597717285156
26-08-1991,2.734375,2.75,183200,2.78125,2.75,2.0398597717285156
27-08-1991,2.75,2.75,362400,2.84375,2.8125,2.0862197875976562
28-08-1991,2.828125,2.84375,203200,2.953125,2.9375,2.178941488265991
29-08-1991,2.921875,2.921875,416800,3.0,2.953125,2.190532922744751
30-08-1991,2.90625,2.96875,236800,2.96875,2.921875,2.167351484298706
03-09-1991,2.78125,2.890625,230400,2.890625,2.78125,2.063039779663086
04-09-1991,2.75,2.765625,175200,2.8125,2.765625,2.0514492988586426
05-09-1991,2.796875,2.796875,309600,2.828125,2.8125,2.0862197875976562
06-09-1991,2.78125,2.8125,55200,2.828125,2.828125,2.097810983657837
09-09-1991,2.8125,2.8125,8000,2.84375,2.84375,2.109400987625122
10-09-1991,2.8125,2.828125,452800,2.84375,2.84375,2.109400987625122
11-09-1991,2.8125,2.828125,145600,2.84375,2.84375,2.109400987625122
12-09-1991,2.84375,2.859375,48000,2.859375,2.84375,2.109400987625122
13-09-1991,2.828125,2.875,366400,2.875,2.84375,2.109400987625122
16-09-1991,2.828125,2.859375,433600,2.859375,2.84375,2.109400987625122
17-09-1991,2.84375,2.84375,648800,2.890625,2.890625,2.1441714763641357
18-09-1991,2.90625,2.90625,136800,2.9375,2.9375,2.178941488265991
19-09-1991,2.921875,2.953125,153600,3.03125,3.03125,2.248483657836914
20-09-1991,3.0,3.078125,312000,3.078125,3.03125,2.248483657836914
23-09-1991,2.96875,3.0625,113600,3.0625,2.96875,2.2021212577819824
24-09-1991,2.875,2.96875,77600,2.96875,2.875,2.1325809955596924
25-09-1991,2.875,2.890625,7200,2.890625,2.875,2.1325809955596924
26-09-1991,2.875,2.90625,296000,2.953125,2.953125,2.190532922744751
27-09-1991,2.953125,2.96875,70400,3.0,2.96875,2.2021212577819824
30-09-1991,2.953125,2.953125,229600,2.984375,2.984375,2.2137107849121094
01-10-1991,2.859375,2.984375,1317600,3.0,2.859375,2.120990037918091
02-10-1991,2.84375,2.84375,740800,2.9375,2.90625,2.1557610034942627
03-10-1991,2.890625,2.90625,106400,2.90625,2.890625,2.1441714763641357
04-10-1991,2.859375,2.875,599200,2.890625,2.890625,2.1441714763641357
07-10-1991,2.859375,2.875,973600,2.9375,2.9375,2.178941488265991
08-10-1991,2.90625,2.9375,735200,2.953125,2.9375,2.1835880279541016
09-10-1991,2.90625,2.9375,43200,2.9375,2.90625,2.1603574752807617
10-10-1991,2.875,2.90625,144000,2.921875,2.90625,2.1603574752807617
11-10-1991,2.90625,2.921875,23200,2.921875,2.921875,2.1719722747802734
14-10-1991,2.9375,2.9375,32000,2.984375,2.96875,2.206817388534546
15-10-1991,2.984375,2.984375,181600,3.015625,3.015625,2.2416625022888184
16-10-1991,3.0,3.046875,104000,3.078125,3.0,2.230046510696411
17-10-1991,2.984375,3.0,89600,3.03125,3.03125,2.253277063369751
18-10-1991,3.0,3.046875,87200,3.046875,3.0,2.230046510696411
21-10-1991,2.984375,2.984375,3200,2.984375,2.984375,2.218431234359741
22-10-1991,2.875,2.953125,495200,2.953125,2.875,2.1371278762817383
23-10-1991,2.890625,2.953125,95200,2.953125,2.890625,2.1487436294555664
24-10-1991,2.84375,2.875,35200,2.875,2.84375,2.113898277282715
25-10-1991,2.75,2.8125,277600,2.8125,2.765625,2.055823564529419
28-10-1991,2.75,2.75,181600,2.84375,2.84375,2.113898277282715
29-10-1991,2.75,2.859375,404800,2.859375,2.765625,2.055823564529419
30-10-1991,2.78125,2.78125,12800,2.796875,2.796875,2.0790538787841797
31-10-1991,2.796875,2.8125,37600,2.84375,2.84375,2.113898277282715
01-11-1991,2.84375,2.859375,62400,2.9375,2.9375,2.1835880279541016
04-11-1991,2.921875,2.921875,624800,3.078125,3.03125,2.253277063369751
05-11-1991,3.046875,3.046875,421600,3.140625,3.109375,2.311349630355835
06-11-1991,3.03125,3.140625,228000,3.140625,3.03125,2.253277063369751
07-11-1991,3.0,3.046875,206400,3.046875,3.03125,2.253277063369751
08-11-1991,3.015625,3.015625,96800,3.0625,3.0625,2.276505708694458
11-11-1991,3.03125,3.0625,20000,3.0625,3.03125,2.253277063369751
12-11-1991,3.0,3.0,71200,3.046875,3.03125,2.253277063369751
13-11-1991,3.03125,3.03125,127200,3.140625,3.125,2.322965621948242
14-11-1991,3.015625,3.125,102400,3.125,3.03125,2.253277063369751
15-11-1991,2.890625,3.015625,141600,3.015625,2.9375,2.1835880279541016
18-11-1991,2.875,2.9375,236800,2.9375,2.875,2.1371278762817383
19-11-1991,2.8125,2.890625,143200,2.890625,2.8125,2.0906667709350586
20-11-1991,2.78125,2.796875,144000,2.796875,2.78125,2.0674386024475098
21-11-1991,2.78125,2.78125,202400,2.84375,2.796875,2.0790538787841797
22-11-1991,2.75,2.78125,97600,2.78125,2.75,2.0442087650299072
25-11-1991,2.75,2.75,16800,2.765625,2.765625,2.055823564529419
26-11-1991,2.609375,2.75,346400,2.75,2.625,1.9512906074523926
27-11-1991,2.625,2.640625,76800,2.65625,2.625,1.9512906074523926
29-11-1991,2.640625,2.640625,28800,2.65625,2.65625,1.9745205640792847
02-12-1991,2.59375,2.65625,299200,2.671875,2.59375,1.92806077003479
03-12-1991,2.59375,2.59375,97600,2.65625,2.65625,1.9745205640792847
04-12-1991,2.625,2.65625,20800,2.65625,2.625,1.9512906074523926
05-12-1991,2.625,2.625,96800,2.6875,2.640625,1.9629052877426147
06-12-1991,2.640625,2.640625,858400,2.65625,2.640625,1.9629052877426147
09-12-1991,2.59375,2.625,57600,2.625,2.59375,1.92806077003479
10-12-1991,2.484375,2.5625,171200,2.5625,2.5,1.8583722114562988
11-12-1991,2.453125,2.515625,415200,2.5625,2.546875,1.8932170867919922
12-12-1991,2.515625,2.515625,124000,2.53125,2.53125,1.8816018104553223
13-12-1991,2.5,2.53125,319200,2.53125,2.5,1.8583722114562988
16-12-1991,2.484375,2.5,372800,2.515625,2.515625,1.8699864149093628
17-12-1991,2.515625,2.515625,683200,2.53125,2.53125,1.8816018104553223
18-12-1991,2.546875,2.546875,112800,2.578125,2.578125,1.9164464473724365
19-12-1991,2.53125,2.5625,392800,2.5625,2.546875,1.8932170867919922
20-12-1991,2.5,2.53125,164800,2.53125,2.515625,1.8699864149093628
23-12-1991,2.421875,2.5,1115200,2.5,2.421875,1.8002976179122925
24-12-1991,2.40625,2.421875,107200,2.515625,2.515625,1.8699864149093628
26-12-1991,2.5,2.5,15200,2.515625,2.5,1.8583722114562988
27-12-1991,2.46875,2.5,48000,2.5,2.46875,1.835142970085144
30-12-1991,2.421875,2.46875,920800,2.46875,2.4375,1.8119126558303833
31-12-1991,2.421875,2.4375,116000,2.484375,2.4375,1.8119126558303833
02-01-1992,2.390625,2.421875,732000,2.421875,2.390625,1.7770674228668213
03-01-1992,2.375,2.390625,277600,2.390625,2.375,1.7654542922973633
06-01-1992,2.3125,2.390625,528000,2.390625,2.328125,1.7306091785430908
07-01-1992,2.140625,2.3125,584000,2.3125,2.140625,1.591231107711792
08-01-1992,2.109375,2.125,692800,2.203125,2.125,1.5796164274215698
09-01-1992,2.109375,2.125,348000,2.171875,2.171875,1.6144607067108154
10-01-1992,2.140625,2.15625,840800,2.234375,2.234375,1.6609196662902832
13-01-1992,2.234375,2.234375,456000,2.328125,2.296875,1.7073791027069092
14-01-1992,2.21875,2.296875,281600,2.3125,2.21875,1.6493052244186401
15-01-1992,2.234375,2.234375,377600,2.296875,2.28125,1.6957650184631348
16-01-1992,2.28125,2.28125,80800,2.328125,2.328125,1.7306091785430908
17-01-1992,2.359375,2.359375,47200,2.421875,2.421875,1.8002976179122925
20-01-1992,2.421875,2.421875,91200,2.53125,2.515625,1.8699864149093628
21-01-1992,2.515625,2.53125,578400,2.546875,2.515625,1.8699864149093628
22-01-1992,2.484375,2.515625,300000,2.515625,2.484375,1.8467577695846558
23-01-1992,2.453125,2.46875,313600,2.5,2.453125,1.823527216911316
24-01-1992,2.3125,2.453125,1104800,2.453125,2.3125,1.7189937829971313
27-01-1992,2.25,2.296875,292800,2.296875,2.265625,1.6841503381729126
28-01-1992,2.1875,2.265625,2736800,2.265625,2.1875,1.6260759830474854
29-01-1992,2.15625,2.203125,463200,2.25,2.203125,1.6376904249191284
30-01-1992,2.140625,2.140625,405600,2.21875,2.1875,1.6260759830474854
31-01-1992,2.1875,2.203125,714400,2.296875,2.25,1.6725348234176636
03-02-1992,2.21875,2.265625,96800,2.265625,2.234375,1.6609196662902832
04-02-1992,2.1875,2.21875,355200,2.234375,2.203125,1.6376904249191284
05-02-1992,2.15625,2.203125,604000,2.203125,2.171875,1.6144607067108154
06-02-1992,2.09375,2.1875,492800,2.1875,2.09375,1.5563867092132568
07-02-1992,2.078125,2.078125,704000,2.21875,2.21875,1.6493052244186401
10-02-1992,2.234375,2.234375,782400,2.34375,2.328125,1.7306091785430908
11-02-1992,2.3125,2.328125,241600,2.34375,2.3125,1.7189937829971313
12-02-1992,2.28125,2.3125,446400,2.328125,2.3125,1.7189937829971313
13-02-1992,2.296875,2.3125,161600,2.3125,2.296875,1.7073791027069092
14-02-1992,2.28125,2.296875,190400,2.328125,2.328125,1.7306091785430908
18-02-1992,2.28125,2.3125,504800,2.3125,2.296875,1.7073791027069092
19-02-1992,2.265625,2.28125,20800,2.28125,2.265625,1.6841503381729126
20-02-1992,2.265625,2.265625,260800,2.296875,2.296875,1.7073791027069092
21-02-1992,2.296875,2.296875,311200,2.328125,2.3125,1.7189937829971313
24-02-1992,2.3125,2.328125,249600,2.34375,2.3125,1.7189937829971313
25-02-1992,2.28125,2.3125,144000,2.3125,2.28125,1.6957650184631348
26-02-1992,2.25,2.265625,835200,2.265625,2.265625,1.6841503381729126
27-02-1992,2.25,2.25,67200,2.296875,2.265625,1.6841503381729126
28-02-1992,2.234375,2.234375,321600,2.265625,2.234375,1.6609196662902832
02-03-1992,2.25,2.25,588800,2.296875,2.25,1.6725348234176636
03-03-1992,2.25,2.265625,608800,2.28125,2.25,1.6725348234176636
04-03-1992,2.234375,2.234375,488000,2.25,2.25,1.6725348234176636
05-03-1992,2.265625,2.265625,607200,2.28125,2.28125,1.6957650184631348
06-03-1992,2.28125,2.28125,404800,2.296875,2.28125,1.6957650184631348
09-03-1992,2.28125,2.28125,348000,2.328125,2.328125,1.7306091785430908
10-03-1992,2.328125,2.328125,348000,2.40625,2.390625,1.7770674228668213
11-03-1992,2.390625,2.40625,376000,2.40625,2.40625,1.7886834144592285
12-03-1992,2.40625,2.4375,347200,2.4375,2.40625,1.7886834144592285
13-03-1992,2.421875,2.4375,138400,2.46875,2.46875,1.835142970085144
16-03-1992,2.40625,2.5,122400,2.5,2.40625,1.7886834144592285
17-03-1992,2.421875,2.4375,569600,2.4375,2.4375,1.8119126558303833
18-03-1992,2.40625,2.421875,46400,2.421875,2.40625,1.7886834144592285
19-03-1992,2.375,2.4375,394400,2.4375,2.40625,1.7886834144592285
20-03-1992,2.453125,2.46875,232000,2.484375,2.46875,1.835142970085144
23-03-1992,2.5,2.5,545600,2.546875,2.5,1.8583722114562988
24-03-1992,2.5,2.5,618400,2.578125,2.5625,1.9048306941986084
25-03-1992,2.5625,2.578125,116800,2.578125,2.578125,1.9164464473724365
26-03-1992,2.609375,2.609375,959200,2.734375,2.6875,1.9977507591247559
27-03-1992,2.609375,2.625,236800,2.65625,2.625,1.9512906074523926
30-03-1992,2.609375,2.625,324800,2.625,2.625,1.9512906074523926
31-03-1992,2.640625,2.640625,307200,2.65625,2.65625,1.9745205640792847
01-04-1992,2.609375,2.65625,172800,2.65625,2.609375,1.9396759271621704
02-04-1992,2.578125,2.609375,878400,2.609375,2.59375,1.92806077003479
03-04-1992,2.546875,2.5625,109600,2.5625,2.5625,1.9048306941986084
06-04-1992,2.578125,2.578125,336000,2.734375,2.734375,2.032595157623291
07-04-1992,2.6875,2.734375,612000,2.734375,2.6875,1.9977507591247559
08-04-1992,2.625,2.671875,771200,2.671875,2.625,1.9512906074523926
09-04-1992,2.609375,2.609375,170400,2.75,2.75,2.0490882396698
10-04-1992,2.734375,2.734375,213600,2.75,2.734375,2.0374460220336914
13-04-1992,2.75,2.765625,141600,2.78125,2.765625,2.060730457305908
14-04-1992,2.78125,2.78125,228000,2.8125,2.8125,2.0956575870513916
15-04-1992,2.8125,2.8125,312000,2.828125,2.828125,2.107301712036133
16-04-1992,2.8125,2.8125,39200,2.828125,2.8125,2.0956575870513916
20-04-1992,2.8125,2.8125,245600,2.890625,2.890625,2.15387225151062
21-04-1992,2.875,2.921875,337600,2.921875,2.90625,2.1655139923095703
22-04-1992,2.875,2.890625,8800,2.890625,2.875,2.142228364944458
23-04-1992,2.84375,2.875,1366400,2.984375,2.875,2.142228364944458
24-04-1992,3.0,3.03125,687200,3.171875,3.0,2.2353687286376953
27-04-1992,3.03125,3.0625,511200,3.09375,3.046875,2.2702972888946533
28-04-1992,3.015625,3.046875,234400,3.046875,3.03125,2.258655071258545
29-04-1992,3.03125,3.046875,237600,3.046875,3.03125,2.258655071258545
30-04-1992,3.03125,3.046875,1008800,3.0625,3.046875,2.2702972888946533
01-05-1992,3.03125,3.03125,146400,3.046875,3.046875,2.2702972888946533
04-05-1992,3.0625,3.0625,251200,3.078125,3.0625,2.2819385528564453
05-05-1992,3.046875,3.046875,532000,3.078125,3.078125,2.2935822010040283
06-05-1992,3.015625,3.078125,792800,3.078125,3.015625,2.247011661529541
07-05-1992,2.96875,3.015625,61600,3.015625,2.96875,2.212085008621216
08-05-1992,2.9375,3.0,42400,3.0,2.953125,2.2004408836364746
11-05-1992,2.90625,2.953125,91200,2.953125,2.90625,2.1655139923095703
12-05-1992,2.75,2.921875,1191200,2.921875,2.796875,2.0840165615081787
13-05-1992,2.765625,2.796875,261600,2.796875,2.765625,2.060730457305908
14-05-1992,2.6875,2.765625,1236800,2.84375,2.84375,2.118943452835083
15-05-1992,2.8125,2.828125,509600,2.90625,2.890625,2.15387225151062
18-05-1992,2.90625,2.90625,431200,3.015625,3.0,2.2353687286376953
19-05-1992,2.953125,3.0,572000,3.046875,3.046875,2.2702972888946533
20-05-1992,3.0625,3.0625,200800,3.09375,3.09375,2.3052241802215576
21-05-1992,3.078125,3.078125,946400,3.15625,3.09375,2.3052241802215576
22-05-1992,3.078125,3.09375,230400,3.15625,3.140625,2.3401503562927246
26-05-1992,3.125,3.140625,1300800,3.1875,3.1875,2.375079870223999
27-05-1992,3.125,3.203125,1122400,3.25,3.125,2.32850980758667
28-05-1992,3.078125,3.140625,627200,3.140625,3.125,2.32850980758667
29-05-1992,3.078125,3.125,368800,3.125,3.09375,2.3052241802215576
01-06-1992,3.078125,3.078125,348800,3.171875,3.171875,2.3634371757507324
02-06-1992,3.125,3.140625,108000,3.15625,3.140625,2.3401503562927246
03-06-1992,3.125,3.15625,1278400,3.1875,3.15625,2.3517942428588867
04-06-1992,3.125,3.125,1169600,3.140625,3.140625,2.3401503562927246
05-06-1992,3.140625,3.15625,816800,3.1875,3.1875,2.375079870223999
08-06-1992,3.21875,3.21875,1822400,3.375,3.3125,2.468219518661499
09-06-1992,3.28125,3.3125,2077600,3.34375,3.3125,2.468219518661499
10-06-1992,3.21875,3.3125,778400,3.3125,3.28125,2.444934368133545
11-06-1992,3.28125,3.28125,438400,3.40625,3.40625,2.5380749702453613
12-06-1992,3.34375,3.375,2042400,3.375,3.34375,2.491504430770874
15-06-1992,3.296875,3.328125,2438400,3.328125,3.3125,2.468219518661499
16-06-1992,3.296875,3.328125,660800,3.328125,3.296875,2.456575870513916
17-06-1992,3.21875,3.3125,673600,3.3125,3.234375,2.4100067615509033
18-06-1992,3.21875,3.21875,948800,3.265625,3.234375,2.4100067615509033
19-06-1992,3.234375,3.25,417600,3.265625,3.234375,2.4100067615509033
22-06-1992,3.203125,3.203125,568000,3.21875,3.203125,2.3867220878601074
23-06-1992,3.203125,3.203125,518400,3.21875,3.203125,2.3867220878601074
24-06-1992,3.171875,3.21875,224000,3.21875,3.21875,2.398364782333374
25-06-1992,3.125,3.21875,307200,3.21875,3.125,2.32850980758667
26-06-1992,3.109375,3.125,629600,3.140625,3.140625,2.3401503562927246
29-06-1992,3.125,3.125,1169600,3.1875,3.171875,2.3634371757507324
30-06-1992,3.15625,3.1875,1156800,3.1875,3.1875,2.375079870223999
01-07-1992,3.203125,3.21875,694400,3.25,3.25,2.421649694442749
02-07-1992,3.25,3.28125,2007200,3.296875,3.28125,2.444934368133545
06-07-1992,3.296875,3.3125,771200,3.328125,3.3125,2.468219518661499
07-07-1992,3.3125,3.3125,655200,3.359375,3.328125,2.4798619747161865
08-07-1992,3.3125,3.328125,480800,3.34375,3.328125,2.4798619747161865
09-07-1992,3.328125,3.34375,424000,3.375,3.359375,2.507856607437134
10-07-1992,3.328125,3.390625,568800,3.390625,3.328125,2.484527587890625
13-07-1992,3.328125,3.328125,624800,3.359375,3.359375,2.507856607437134
14-07-1992,3.390625,3.390625,627200,3.625,3.578125,2.671159505844116
15-07-1992,3.515625,3.59375,465600,3.609375,3.53125,2.636166572570801
16-07-1992,3.390625,3.5,143200,3.5,3.421875,2.554514169692993
17-07-1992,3.421875,3.4375,45600,3.453125,3.4375,2.566178798675537
20-07-1992,3.390625,3.4375,645600,3.453125,3.390625,2.5311853885650635
21-07-1992,3.390625,3.390625,224000,3.421875,3.40625,2.5428504943847656
22-07-1992,3.40625,3.40625,235200,3.484375,3.484375,2.6011722087860107
23-07-1992,3.46875,3.5,112000,3.515625,3.5,2.6128368377685547
24-07-1992,3.5,3.5,329600,3.609375,3.609375,2.694489002227783
27-07-1992,3.5625,3.609375,66400,3.609375,3.59375,2.682823419570923
28-07-1992,3.53125,3.59375,91200,3.59375,3.5625,2.659494638442993
29-07-1992,3.546875,3.5625,84800,3.578125,3.578125,2.671159505844116
30-07-1992,3.5625,3.5625,565600,3.640625,3.640625,2.717817783355713
31-07-1992,3.625,3.640625,500800,3.65625,3.640625,2.717817783355713
03-08-1992,3.625,3.625,492000,3.703125,3.703125,2.7644760608673096
04-08-1992,3.6875,3.6875,398400,3.71875,3.71875,2.776139259338379
05-08-1992,3.375,3.59375,268800,3.59375,3.40625,2.5428504943847656
06-08-1992,3.171875,3.25,1166400,3.265625,3.25,2.4262051582336426
07-08-1992,3.25,3.25,996000,3.515625,3.515625,2.6245005130767822
10-08-1992,3.5,3.515625,88000,3.5625,3.546875,2.6478307247161865
11-08-1992,3.546875,3.546875,2608000,3.5625,3.546875,2.6478307247161865
12-08-1992,3.5625,3.5625,92800,3.59375,3.59375,2.682823419570923
13-08-1992,3.609375,3.625,684800,3.734375,3.734375,2.787804365158081
14-08-1992,3.734375,3.78125,1344000,3.84375,3.75,2.7994682788848877
17-08-1992,3.671875,3.71875,1498400,3.71875,3.6875,2.7528109550476074
18-08-1992,3.578125,3.671875,823200,3.6875,3.59375,2.682823419570923
19-08-1992,3.5,3.5,844800,3.6875,3.5625,2.659494638442993
20-08-1992,3.5625,3.625,7611200,3.640625,3.59375,2.682823419570923
21-08-1992,3.59375,3.609375,1631200,3.640625,3.59375,2.682823419570923
24-08-1992,3.578125,3.578125,1412000,3.609375,3.578125,2.671159505844116
25-08-1992,3.578125,3.578125,1002400,3.71875,3.671875,2.7411460876464844
26-08-1992,3.6875,3.6875,1988000,3.75,3.75,2.7994682788848877
27-08-1992,3.71875,3.734375,872800,3.796875,3.78125,2.8227977752685547
28-08-1992,3.8125,3.8125,1732800,3.9375,3.9375,2.9394419193267822
31-08-1992,3.84375,3.90625,1392800,3.984375,3.875,2.892782688140869
01-09-1992,3.859375,3.875,740000,3.9375,3.90625,2.916112184524536
02-09-1992,3.875,3.9375,458400,3.953125,3.890625,2.9044477939605713
03-09-1992,3.890625,3.90625,617600,3.921875,3.921875,2.927777051925659
04-09-1992,3.921875,3.921875,190400,3.96875,3.953125,2.9511072635650635
08-09-1992,3.953125,3.953125,1150400,4.09375,4.078125,3.044422149658203
09-09-1992,4.0625,4.078125,660000,4.09375,4.09375,3.0560858249664307
10-09-1992,4.0625,4.09375,809600,4.109375,4.078125,3.044422149658203
11-09-1992,4.0625,4.078125,549600,4.109375,4.109375,3.067750930786133
14-09-1992,4.109375,4.140625,684000,4.171875,4.125,3.0794150829315186
15-09-1992,4.109375,4.125,557600,4.140625,4.109375,3.067750930786133
16-09-1992,4.09375,4.109375,723200,4.171875,4.125,3.0794150829315186
17-09-1992,4.125,4.125,565600,4.28125,4.21875,3.149402141571045
18-09-1992,4.1875,4.1875,668000,4.3125,4.3125,3.2193892002105713
21-09-1992,4.328125,4.328125,808000,4.34375,4.34375,3.2427170276641846
22-09-1992,4.296875,4.3125,662400,4.375,4.359375,3.2543835639953613
23-09-1992,4.359375,4.375,898400,4.46875,4.375,3.266047239303589
24-09-1992,4.390625,4.390625,1256800,4.484375,4.46875,3.3360331058502197
25-09-1992,4.203125,4.421875,1837600,4.4375,4.25,3.172729730606079
28-09-1992,4.109375,4.25,1749600,4.25,4.125,3.0794150829315186
29-09-1992,4.171875,4.203125,276800,4.234375,4.234375,3.1610660552978516
30-09-1992,4.15625,4.21875,330400,4.234375,4.15625,3.102743625640869
01-10-1992,4.03125,4.140625,378400,4.140625,4.03125,3.009427070617676
02-10-1992,4.015625,4.046875,772800,4.078125,4.046875,3.0210933685302734
05-10-1992,3.953125,4.046875,312000,4.046875,3.96875,2.962770938873291
06-10-1992,3.90625,3.96875,885600,3.96875,3.9375,2.9394419193267822
07-10-1992,3.953125,3.953125,649600,4.015625,3.984375,2.974435329437256
08-10-1992,3.96875,3.96875,266400,4.0625,4.0,2.990790605545044
09-10-1992,3.90625,3.96875,112000,4.03125,3.9375,2.9440598487854004
12-10-1992,3.9375,3.9375,351200,3.953125,3.953125,2.9557430744171143
13-10-1992,3.890625,3.9375,412000,3.953125,3.9375,2.9440598487854004
14-10-1992,3.921875,3.9375,341600,3.953125,3.9375,2.9440598487854004
15-10-1992,3.90625,3.9375,205600,3.9375,3.90625,2.92069411277771
16-10-1992,3.921875,3.921875,1151200,4.078125,4.0625,3.0375213623046875
19-10-1992,4.0625,4.0625,756000,4.3125,4.28125,3.2010810375213623
20-10-1992,4.203125,4.265625,209600,4.265625,4.21875,3.154350519180298
21-10-1992,4.140625,4.203125,104800,4.203125,4.15625,3.107619047164917
22-10-1992,3.953125,4.140625,365600,4.140625,3.953125,2.9557430744171143
23-10-1992,3.9375,3.96875,101600,3.96875,3.953125,2.9557430744171143
26-10-1992,3.953125,3.953125,396800,4.015625,4.0,2.990790605545044
27-10-1992,3.8125,3.984375,318400,3.984375,3.859375,2.885646104812622
28-10-1992,3.71875,3.859375,920800,3.859375,3.828125,2.8622798919677734
29-10-1992,3.828125,3.828125,348000,3.90625,3.84375,2.873962640762329
30-10-1992,3.8125,3.875,143200,3.875,3.8125,2.850597381591797
02-11-1992,3.828125,3.828125,156800,3.875,3.875,2.8973286151885986
03-11-1992,3.75,3.875,296800,3.875,3.75,2.803866147994995
04-11-1992,3.65625,3.765625,464000,3.78125,3.65625,2.733769178390503
05-11-1992,3.46875,3.625,1245600,3.625,3.484375,2.605259418487549
06-11-1992,3.53125,3.53125,1823200,3.671875,3.65625,2.733769178390503
09-11-1992,3.5,3.625,1322400,3.65625,3.546875,2.651991367340088
10-11-1992,3.5625,3.5625,1669600,3.625,3.625,2.71040415763855
11-11-1992,3.5625,3.625,551200,3.625,3.5625,2.6636741161346436
12-11-1992,3.5625,3.625,1320800,3.640625,3.578125,2.675356149673462
13-11-1992,3.59375,3.609375,324000,3.640625,3.625,2.71040415763855
16-11-1992,3.609375,3.609375,257600,3.65625,3.65625,2.733769178390503
17-11-1992,3.625,3.625,304000,3.640625,3.625,2.71040415763855
18-11-1992,3.625,3.625,693600,3.640625,3.640625,2.722088098526001
19-11-1992,3.46875,3.609375,821600,3.640625,3.5,2.6169424057006836
20-11-1992,3.53125,3.53125,536800,3.59375,3.59375,2.687039375305176
23-11-1992,3.5625,3.5625,660000,3.671875,3.625,2.71040415763855
24-11-1992,3.578125,3.609375,503200,3.609375,3.59375,2.687039375305176
25-11-1992,3.578125,3.578125,96000,3.609375,3.59375,2.687039375305176
27-11-1992,3.578125,3.59375,230400,3.625,3.625,2.71040415763855
30-11-1992,3.53125,3.625,539200,3.625,3.546875,2.651991367340088
01-12-1992,3.53125,3.546875,1116800,3.546875,3.53125,2.6403074264526367
02-12-1992,3.53125,3.53125,721600,3.578125,3.578125,2.675356149673462
03-12-1992,3.421875,3.5625,1191200,3.5625,3.4375,2.570211172103882
04-12-1992,3.421875,3.4375,1249600,3.5,3.5,2.6169424057006836
07-12-1992,3.484375,3.484375,167200,3.546875,3.5,2.6169424057006836
08-12-1992,3.453125,3.5,580000,3.515625,3.484375,2.605259418487549
09-12-1992,3.484375,3.5,374400,3.546875,3.53125,2.6403074264526367
10-12-1992,3.484375,3.546875,1601600,3.609375,3.609375,2.6987223625183105
11-12-1992,3.65625,3.65625,151200,3.703125,3.671875,2.7454535961151123
14-12-1992,3.609375,3.671875,920000,3.671875,3.65625,2.733769178390503
15-12-1992,3.609375,3.640625,406400,3.640625,3.625,2.71040415763855
16-12-1992,3.59375,3.609375,402400,3.625,3.59375,2.687039375305176
17-12-1992,3.5625,3.609375,52800,3.609375,3.5625,2.6636741161346436
18-12-1992,3.578125,3.59375,295200,3.59375,3.59375,2.687039375305176
21-12-1992,3.546875,3.578125,488000,3.578125,3.546875,2.651991367340088
22-12-1992,3.53125,3.5625,960800,3.5625,3.546875,2.651991367340088
23-12-1992,3.515625,3.546875,1008000,3.546875,3.515625,2.628624439239502
24-12-1992,3.53125,3.546875,655200,3.59375,3.59375,2.687039375305176
28-12-1992,3.53125,3.578125,97600,3.578125,3.546875,2.651991367340088
29-12-1992,3.53125,3.546875,596000,3.59375,3.5625,2.6636741161346436
30-12-1992,3.546875,3.578125,639200,3.578125,3.546875,2.651991367340088
31-12-1992,3.5625,3.5625,376000,3.6875,3.671875,2.7454535961151123
04-01-1993,3.609375,3.6875,597600,3.71875,3.609375,2.6987223625183105
05-01-1993,3.578125,3.609375,715200,3.6875,3.6875,2.7571351528167725
06-01-1993,3.59375,3.6875,928800,3.6875,3.609375,2.6987223625183105
07-01-1993,3.5625,3.609375,333600,3.609375,3.578125,2.675356149673462
08-01-1993,3.46875,3.578125,1617600,3.578125,3.46875,2.5935776233673096
11-01-1993,3.375,3.484375,410400,3.484375,3.390625,2.5406548976898193
12-01-1993,3.359375,3.390625,269600,3.40625,3.40625,2.5523641109466553
13-01-1993,3.359375,3.40625,826400,3.484375,3.46875,2.5991973876953125
14-01-1993,3.34375,3.4375,619200,3.453125,3.34375,2.505530834197998
15-01-1993,3.359375,3.375,1232800,3.421875,3.390625,2.5406548976898193
18-01-1993,3.359375,3.390625,460000,3.390625,3.375,2.5289483070373535
19-01-1993,3.359375,3.359375,1157600,3.484375,3.453125,2.5874881744384766
20-01-1993,3.4375,3.453125,132800,3.484375,3.46875,2.5991973876953125
21-01-1993,3.4375,3.4375,272800,3.5,3.5,2.622612476348877
22-01-1993,3.5,3.515625,540800,3.59375,3.59375,2.6928608417510986
25-01-1993,3.578125,3.578125,969600,3.703125,3.6875,2.7631099224090576
26-01-1993,3.78125,3.8125,1224000,3.875,3.78125,2.8333585262298584
27-01-1993,3.703125,3.734375,636000,3.765625,3.75,2.809940814971924
28-01-1993,3.75,3.765625,773600,3.90625,3.90625,2.92702317237854
29-01-1993,3.890625,3.90625,492800,4.0,3.96875,2.9738547801971436
01-02-1993,4.0,4.0,1876800,4.078125,4.0625,3.0441031455993652
02-02-1993,4.046875,4.046875,1044000,4.09375,4.09375,3.067518949508667
03-02-1993,4.09375,4.09375,1448000,4.359375,4.296875,3.2197227478027344
04-02-1993,4.328125,4.328125,1330400,4.4375,4.4375,3.325098991394043
05-02-1993,4.4375,4.4375,1606400,4.515625,4.5,3.3719289302825928
08-02-1993,4.46875,4.5,1975200,4.5,4.5,3.3719289302825928
09-02-1993,4.40625,4.5,756000,4.5,4.421875,3.3133904933929443
10-02-1993,4.359375,4.421875,800000,4.453125,4.375,3.2782654762268066
11-02-1993,4.359375,4.359375,971200,4.5,4.484375,3.360222101211548
12-02-1993,4.46875,4.484375,932000,4.484375,4.484375,3.360222101211548
16-02-1993,4.34375,4.46875,292800,4.46875,4.34375,3.2548489570617676
17-02-1993,4.34375,4.359375,632800,4.40625,4.390625,3.289973735809326
18-02-1993,4.421875,4.421875,604800,4.484375,4.4375,3.325098991394043
19-02-1993,4.421875,4.4375,3408800,4.515625,4.5,3.3719289302825928
22-02-1993,4.5,4.5,1140000,4.609375,4.5625,3.4187631607055664
23-02-1993,4.5,4.59375,664000,4.59375,4.546875,3.4070537090301514
24-02-1993,4.46875,4.515625,499200,4.515625,4.484375,3.360222101211548
25-02-1993,4.359375,4.484375,259200,4.484375,4.359375,3.2665581703186035
26-02-1993,4.359375,4.390625,128000,4.421875,4.40625,3.301682233810425
01-03-1993,4.421875,4.4375,1396000,4.53125,4.4375,3.325098991394043
02-03-1993,4.4375,4.46875,332800,4.484375,4.453125,3.3368046283721924
03-03-1993,4.46875,4.46875,4088800,4.84375,4.78125,3.582674741744995
04-03-1993,4.640625,4.75,913600,4.78125,4.734375,3.547553539276123
05-03-1993,4.6875,4.71875,335200,4.734375,4.6875,3.512427806854248
08-03-1993,4.703125,4.703125,472000,4.796875,4.78125,3.582674741744995
09-03-1993,4.75,4.796875,324000,4.796875,4.78125,3.582674741744995
10-03-1993,4.734375,4.78125,199200,4.8125,4.8125,3.606091022491455
11-03-1993,4.796875,4.8125,213600,4.921875,4.890625,3.6646337509155273
12-03-1993,4.796875,4.921875,702400,4.921875,4.84375,3.6295063495635986
15-03-1993,4.84375,4.84375,209600,4.875,4.875,3.652925491333008
16-03-1993,4.84375,4.859375,316800,4.875,4.859375,3.6412179470062256
17-03-1993,4.859375,4.875,136800,4.984375,4.984375,3.7348825931549072
18-03-1993,4.921875,4.96875,444000,5.0,5.0,3.746588706970215
19-03-1993,4.96875,4.984375,300800,5.0,4.96875,3.723175287246704
22-03-1993,4.96875,4.984375,640800,5.0,4.984375,3.7348825931549072
23-03-1993,4.96875,5.015625,100800,5.015625,4.96875,3.723175287246704
24-03-1993,4.96875,4.96875,574400,5.078125,4.96875,3.723175287246704
25-03-1993,4.84375,4.90625,1020000,4.921875,4.84375,3.6295063495635986
26-03-1993,4.8125,4.84375,753600,4.921875,4.90625,3.6763410568237305
29-03-1993,4.921875,4.921875,589600,4.984375,4.984375,3.7348825931549072
30-03-1993,5.0,5.0,663200,5.03125,5.03125,3.7700045108795166
31-03-1993,4.96875,5.03125,558400,5.03125,5.015625,3.7583000659942627
01-04-1993,4.984375,5.03125,537600,5.03125,5.0,3.746588706970215
02-04-1993,4.859375,4.953125,240800,4.953125,4.890625,3.6646337509155273
05-04-1993,4.875,4.90625,292800,4.90625,4.90625,3.6763410568237305
06-04-1993,4.875,4.90625,604800,4.90625,4.875,3.652925491333008
07-04-1993,4.8125,4.84375,860000,4.875,4.875,3.652925491333008
08-04-1993,4.859375,4.859375,24000,4.875,4.875,3.658552646636963
12-04-1993,4.859375,4.859375,325600,4.96875,4.96875,3.7289092540740967
13-04-1993,4.84375,4.96875,1076800,5.03125,4.875,3.658552646636963
14-04-1993,4.84375,4.890625,447200,4.890625,4.84375,3.635101079940796
15-04-1993,4.8125,4.875,231200,4.921875,4.8125,3.6116480827331543
16-04-1993,4.796875,4.828125,356800,4.84375,4.84375,3.635101079940796
19-04-1993,4.828125,4.828125,173600,4.890625,4.875,3.658552646636963
20-04-1993,4.90625,4.90625,1133600,5.0625,4.984375,3.740635633468628
21-04-1993,4.875,5.015625,185600,5.015625,4.875,3.658552646636963
22-04-1993,4.671875,4.84375,335200,4.84375,4.671875,3.5061120986938477
23-04-1993,4.46875,4.671875,786400,4.671875,4.5,3.377126932144165
26-04-1993,4.515625,4.53125,367200,4.640625,4.625,3.4709343910217285
27-04-1993,4.625,4.65625,108000,4.65625,4.640625,3.482661008834839
28-04-1993,4.625,4.625,189600,4.640625,4.640625,3.482661008834839
29-04-1993,4.625,4.65625,383200,4.75,4.75,3.5647451877593994
30-04-1993,4.75,4.75,779200,4.96875,4.921875,3.6937310695648193
03-05-1993,4.953125,4.953125,249600,4.984375,4.953125,3.717184543609619
04-05-1993,4.90625,4.921875,1332800,4.953125,4.921875,3.6937310695648193
05-05-1993,4.921875,4.921875,65600,4.9375,4.921875,3.6937310695648193
06-05-1993,4.921875,4.921875,664800,5.0,4.9375,3.7054567337036133
07-05-1993,4.90625,4.921875,186400,4.96875,4.921875,3.6937310695648193
10-05-1993,4.8125,4.9375,828000,4.9375,4.8125,3.6116480827331543
11-05-1993,4.78125,4.78125,1120800,4.953125,4.9375,3.7054567337036133
12-05-1993,4.90625,4.9375,852000,4.984375,4.953125,3.717184543609619
13-05-1993,4.90625,4.90625,702400,5.09375,5.0625,3.7992663383483887
14-05-1993,5.0625,5.0625,931200,5.265625,5.171875,3.8813514709472656
17-05-1993,5.15625,5.171875,390400,5.203125,5.203125,3.904802083969116
18-05-1993,5.203125,5.203125,340800,5.328125,5.296875,3.9751596450805664
19-05-1993,5.1875,5.3125,412800,5.3125,5.234375,3.928255319595337
20-05-1993,5.21875,5.21875,216000,5.25,5.234375,3.928255319595337
21-05-1993,5.203125,5.234375,400000,5.234375,5.21875,3.916527509689331
24-05-1993,5.21875,5.25,496000,5.25,5.234375,3.928255319595337
25-05-1993,5.171875,5.1875,400800,5.25,5.1875,3.893078565597534
26-05-1993,5.15625,5.1875,188000,5.203125,5.203125,3.904802083969116
27-05-1993,5.203125,5.203125,511200,5.3125,5.3125,3.9868860244750977
28-05-1993,5.28125,5.296875,473600,5.3125,5.3125,3.9868860244750977
01-06-1993,5.328125,5.34375,619200,5.4375,5.40625,4.057240009307861
02-06-1993,5.40625,5.40625,522400,5.625,5.5625,4.174501895904541
03-06-1993,5.484375,5.5625,403200,5.5625,5.515625,4.139324188232422
04-06-1993,5.484375,5.5,889600,5.515625,5.5,4.127598762512207
07-06-1993,5.484375,5.5,482400,5.515625,5.5,4.127598762512207
08-06-1993,5.421875,5.484375,277600,5.484375,5.4375,4.080694198608398
09-06-1993,5.40625,5.40625,262400,5.5,5.5,4.127598762512207
10-06-1993,5.4375,5.484375,779200,5.484375,5.4375,4.080694198608398
11-06-1993,5.234375,5.40625,606400,5.40625,5.234375,3.928255319595337
14-06-1993,5.125,5.21875,763200,5.21875,5.125,3.8461694717407227
15-06-1993,5.125,5.125,288800,5.15625,5.125,3.8461694717407227
16-06-1993,5.140625,5.140625,219200,5.203125,5.203125,3.904802083969116
17-06-1993,5.21875,5.21875,193600,5.328125,5.25,3.939983606338501
18-06-1993,5.265625,5.28125,224800,5.296875,5.265625,3.951706886291504
21-06-1993,5.28125,5.28125,292800,5.359375,5.34375,4.0103373527526855
22-06-1993,5.265625,5.34375,1112000,5.34375,5.265625,3.951706886291504
23-06-1993,5.265625,5.265625,2466400,5.296875,5.296875,3.9751596450805664
24-06-1993,5.0625,5.296875,637600,5.296875,5.125,3.8461694717407227
25-06-1993,5.109375,5.125,36000,5.125,5.125,3.8461694717407227
28-06-1993,5.125,5.125,204800,5.140625,5.140625,3.857896566390991
29-06-1993,4.984375,5.109375,648000,5.125,5.046875,3.787538528442383
30-06-1993,5.03125,5.0625,552000,5.09375,5.09375,3.822720766067505
01-07-1993,5.015625,5.078125,376800,5.078125,5.046875,3.787538528442383
02-07-1993,5.015625,5.0625,100000,5.0625,5.046875,3.787538528442383
06-07-1993,5.0,5.046875,437600,5.09375,5.0,3.7523610591888428
07-07-1993,4.96875,4.96875,1369600,5.078125,5.078125,3.810994863510132
08-07-1993,5.078125,5.078125,955200,5.1875,5.1875,3.893078565597534
09-07-1993,5.171875,5.171875,1352000,5.25,5.25,3.945685863494873
12-07-1993,5.28125,5.28125,900000,5.34375,5.3125,3.992656946182251
13-07-1993,5.28125,5.3125,100000,5.3125,5.28125,3.9691696166992188
14-07-1993,5.28125,5.28125,538400,5.3125,5.28125,3.9691696166992188
15-07-1993,5.21875,5.3125,338400,5.3125,5.25,3.945685863494873
16-07-1993,5.234375,5.25,147200,5.265625,5.25,3.945685863494873
19-07-1993,5.25,5.296875,417600,5.296875,5.28125,3.9691696166992188
20-07-1993,5.25,5.25,713600,5.3125,5.3125,3.992656946182251
21-07-1993,5.3125,5.3125,395200,5.34375,5.3125,3.992656946182251
22-07-1993,5.28125,5.3125,314400,5.3125,5.296875,3.980914354324341
23-07-1993,5.25,5.296875,341600,5.3125,5.3125,3.992656946182251
26-07-1993,5.296875,5.34375,196000,5.34375,5.296875,3.980914354324341
27-07-1993,5.21875,5.265625,191200,5.28125,5.25,3.945685863494873
28-07-1993,5.234375,5.25,356800,5.296875,5.265625,3.9574267864227295
29-07-1993,5.25,5.265625,98400,5.3125,5.296875,3.980914354324341
30-07-1993,5.3125,5.3125,57600,5.328125,5.328125,4.00439977645874
02-08-1993,5.3125,5.328125,1029600,5.46875,5.46875,4.110090732574463
03-08-1993,5.484375,5.484375,356000,5.578125,5.5625,4.180547714233398
04-08-1993,5.546875,5.546875,400000,5.65625,5.625,4.227519989013672
05-08-1993,5.609375,5.609375,56000,5.640625,5.625,4.227519989013672
06-08-1993,5.578125,5.625,348800,5.625,5.59375,4.204034328460693
09-08-1993,5.609375,5.609375,344800,5.6875,5.6875,4.27449369430542
10-08-1993,5.6875,5.6875,632800,5.75,5.75,4.321464538574219
11-08-1993,5.78125,5.78125,784800,6.0,6.0,4.509354591369629
12-08-1993,5.984375,6.0,1103200,6.21875,6.015625,4.521098613739014
13-08-1993,5.9375,6.03125,226400,6.03125,5.9375,4.462381362915039
16-08-1993,5.9375,5.9375,448000,5.984375,5.984375,4.497610092163086
17-08-1993,6.0625,6.0625,640000,6.25,6.25,4.6972432136535645
18-08-1993,6.234375,6.234375,805600,6.484375,6.421875,4.826416969299316
19-08-1993,6.3125,6.4375,424000,6.46875,6.3125,4.744219779968262
20-08-1993,6.3125,6.3125,914400,6.453125,6.453125,4.849905014038086
23-08-1993,6.453125,6.46875,964800,6.703125,6.703125,5.037796974182129
24-08-1993,6.53125,6.703125,704000,6.703125,6.5625,4.932105541229248
25-08-1993,6.4375,6.5625,753600,6.578125,6.453125,4.849905014038086
26-08-1993,6.25,6.453125,817600,6.453125,6.296875,4.732472896575928
27-08-1993,6.03125,6.28125,627200,6.28125,6.125,4.603297710418701
30-08-1993,6.109375,6.125,529600,6.25,6.21875,4.6737565994262695
31-08-1993,6.171875,6.234375,888000,6.328125,6.28125,4.720728874206543
01-09-1993,6.28125,6.28125,388800,6.390625,6.375,4.7911882400512695
02-09-1993,6.28125,6.375,286400,6.375,6.28125,4.720728874206543
03-09-1993,6.28125,6.28125,135200,6.328125,6.296875,4.732472896575928
07-09-1993,6.125,6.296875,236800,6.328125,6.125,4.603297710418701
08-09-1993,5.953125,6.125,388800,6.125,5.953125,4.474123001098633
09-09-1993,5.921875,5.953125,533600,5.984375,5.96875,4.485867023468018
10-09-1993,5.953125,5.96875,121600,5.984375,5.984375,4.497610092163086
13-09-1993,5.921875,5.984375,472800,6.03125,5.921875,4.450636863708496
14-09-1993,5.90625,5.953125,633600,5.96875,5.9375,4.462381362915039
15-09-1993,5.921875,5.9375,994400,6.046875,6.0,4.509354591369629
16-09-1993,6.0,6.0,152800,6.03125,6.0,4.509354591369629
17-09-1993,5.890625,5.96875,127200,5.96875,5.9375,4.462381362915039
20-09-1993,5.9375,5.9375,248000,5.96875,5.96875,4.485867023468018
21-09-1993,5.96875,5.96875,218400,6.03125,6.015625,4.521098613739014
22-09-1993,5.96875,6.0,99200,6.03125,5.96875,4.485867023468018
23-09-1993,5.953125,5.984375,232800,5.984375,5.984375,4.497610092163086
24-09-1993,5.953125,5.96875,357600,6.0,5.96875,4.485867023468018
27-09-1993,5.953125,5.953125,441600,6.0,5.984375,4.497610092163086
28-09-1993,5.921875,5.984375,326400,5.984375,5.9375,4.462381362915039
29-09-1993,5.9375,5.9375,1200800,6.453125,6.453125,4.849905014038086
30-09-1993,6.453125,6.453125,755200,6.625,6.625,4.979079723358154
01-10-1993,6.59375,6.59375,599200,6.71875,6.71875,5.0495381355285645
04-10-1993,6.640625,6.71875,248000,6.75,6.640625,4.990819454193115
05-10-1993,6.578125,6.65625,122400,6.65625,6.578125,4.94384765625
06-10-1993,6.5,6.578125,114400,6.578125,6.53125,4.9086198806762695
07-10-1993,6.4375,6.5,224000,6.5,6.484375,4.873391151428223
08-10-1993,6.40625,6.484375,245600,6.484375,6.421875,4.832005977630615
11-10-1993,6.25,6.421875,288000,6.421875,6.25,4.702683448791504
12-10-1993,6.125,6.25,272800,6.25,6.125,4.608627796173096
13-10-1993,5.96875,6.078125,826400,6.109375,5.984375,4.502817630767822
14-10-1993,6.0,6.09375,388000,6.125,6.03125,4.538089752197266
15-10-1993,5.828125,6.0,707200,6.0,5.875,4.4205217361450195
18-10-1993,5.71875,5.875,719200,5.875,5.75,4.326467514038086
19-10-1993,5.484375,5.75,1467200,5.875,5.828125,4.385251522064209
20-10-1993,5.3125,5.796875,1626400,5.796875,5.3125,3.9972805976867676
21-10-1993,5.4375,5.4375,3216000,5.6875,5.5,4.138360023498535
22-10-1993,5.375,5.5,928800,5.5,5.375,4.04430627822876
25-10-1993,5.28125,5.375,901600,5.421875,5.28125,3.9737648963928223
26-10-1993,5.0,5.28125,1536800,5.3125,5.03125,3.785660743713379
27-10-1993,5.0625,5.0625,1416000,5.1875,5.1875,3.9032278060913086
28-10-1993,5.1875,5.1875,1215200,5.453125,5.453125,4.103090286254883
29-10-1993,5.328125,5.421875,412800,5.46875,5.34375,4.0207953453063965
01-11-1993,5.34375,5.359375,379200,5.484375,5.453125,4.103090286254883
02-11-1993,5.453125,5.453125,553600,5.578125,5.5625,4.185388088226318
03-11-1993,5.578125,5.609375,540800,5.671875,5.625,4.232416152954102
04-11-1993,5.625,5.65625,345600,5.734375,5.625,4.232416152954102
05-11-1993,5.53125,5.625,112800,5.625,5.5625,4.185388088226318
08-11-1993,5.46875,5.5625,207200,5.5625,5.46875,4.1148505210876465
09-11-1993,5.1875,5.46875,542400,5.46875,5.21875,3.9267399311065674
10-11-1993,5.21875,5.25,191200,5.28125,5.265625,3.962010622024536
11-11-1993,5.203125,5.28125,564800,5.40625,5.21875,3.9267399311065674
12-11-1993,5.0625,5.203125,1202400,5.203125,5.203125,3.914983034133911
15-11-1993,5.140625,5.203125,675200,5.234375,5.140625,3.867957353591919
16-11-1993,4.875,4.96875,827200,4.984375,4.9375,3.715120792388916
17-11-1993,4.9375,5.0,1617600,5.203125,5.203125,3.914983034133911
18-11-1993,5.15625,5.203125,463200,5.359375,5.296875,3.985525369644165
19-11-1993,5.21875,5.25,85600,5.265625,5.265625,3.962010622024536
22-11-1993,5.078125,5.25,173600,5.25,5.078125,3.8209292888641357
23-11-1993,5.078125,5.109375,697600,5.21875,5.09375,3.8326876163482666
24-11-1993,5.109375,5.109375,556800,5.15625,5.15625,3.8797125816345215
26-11-1993,5.03125,5.125,94400,5.125,5.03125,3.785660743713379
29-11-1993,4.828125,4.96875,1270400,4.96875,4.828125,3.632821559906006
30-11-1993,4.78125,4.84375,457600,4.859375,4.828125,3.632821559906006
01-12-1993,4.828125,4.859375,316000,4.921875,4.859375,3.656336545944214
02-12-1993,4.84375,4.84375,429600,4.90625,4.859375,3.656336545944214
03-12-1993,4.875,4.875,142400,4.90625,4.875,3.6680920124053955
06-12-1993,4.84375,4.875,308800,4.90625,4.890625,3.6798505783081055
07-12-1993,4.859375,4.875,528800,4.953125,4.90625,3.691605806350708
08-12-1993,4.84375,4.890625,89600,4.890625,4.859375,3.656336545944214
09-12-1993,4.71875,4.859375,69600,4.859375,4.78125,3.5975520610809326
10-12-1993,4.796875,4.796875,271200,4.84375,4.828125,3.632821559906006
13-12-1993,4.71875,4.859375,102400,4.859375,4.765625,3.5857949256896973
14-12-1993,4.734375,4.796875,620800,4.8125,4.8125,3.6210649013519287
15-12-1993,4.71875,4.765625,128000,4.765625,4.734375,3.5622832775115967
16-12-1993,4.75,4.75,565600,4.84375,4.78125,3.5975520610809326
17-12-1993,4.734375,4.796875,200800,4.8125,4.75,3.5740408897399902
20-12-1993,4.40625,4.71875,927200,4.71875,4.515625,3.3976895809173584
21-12-1993,4.265625,4.546875,880000,4.546875,4.4375,3.338905096054077
22-12-1993,4.40625,4.453125,676000,4.75,4.734375,3.5622832775115967
23-12-1993,4.703125,4.703125,176000,4.796875,4.75,3.5740408897399902
27-12-1993,4.6875,4.6875,1060000,4.890625,4.859375,3.656336545944214
28-12-1993,4.8125,4.890625,629600,4.921875,4.8125,3.6210649013519287
29-12-1993,4.828125,4.828125,648000,4.890625,4.859375,3.656336545944214
30-12-1993,4.828125,4.84375,270400,4.859375,4.859375,3.656336545944214
31-12-1993,4.828125,4.859375,112800,4.875,4.875,3.6680920124053955
03-01-1994,4.828125,4.875,332000,4.875,4.875,3.6680920124053955
04-01-1994,4.84375,4.84375,202400,4.890625,4.890625,3.6798505783081055
05-01-1994,4.96875,4.96875,800000,5.25,5.203125,3.914983034133911
06-01-1994,5.234375,5.234375,999200,5.484375,5.453125,4.103090286254883
07-01-1994,5.40625,5.46875,704800,5.46875,5.4375,4.091333866119385
10-01-1994,5.421875,5.421875,573600,5.640625,5.640625,4.250033855438232
11-01-1994,5.453125,5.59375,1028800,5.59375,5.5,4.144075870513916
12-01-1994,5.390625,5.5,296000,5.53125,5.40625,4.0734381675720215
13-01-1994,5.3125,5.40625,10779200,5.421875,5.3125,4.00280237197876
14-01-1994,5.15625,5.28125,1295200,5.328125,5.15625,3.885072708129883
17-01-1994,5.21875,5.25,1098400,5.3125,5.296875,3.991030216217041
18-01-1994,5.3125,5.3125,851200,5.4375,5.4375,4.096985340118408
19-01-1994,5.46875,5.46875,1249600,5.609375,5.515625,4.155850410461426
20-01-1994,5.359375,5.515625,487200,5.5625,5.359375,4.038121223449707
21-01-1994,5.34375,5.390625,354400,5.421875,5.375,4.049892425537109
24-01-1994,5.3125,5.390625,408800,5.40625,5.3125,4.00280237197876
25-01-1994,5.296875,5.3125,284000,5.328125,5.3125,4.00280237197876
26-01-1994,5.265625,5.3125,873600,5.40625,5.375,4.049892425537109
27-01-1994,5.375,5.375,1322400,5.5625,5.546875,4.179394721984863
28-01-1994,5.484375,5.5,303200,5.515625,5.5,4.144075870513916
31-01-1994,5.515625,5.53125,787200,5.671875,5.515625,4.155850410461426
01-02-1994,5.546875,5.546875,700800,5.625,5.609375,4.2264885902404785
02-02-1994,5.578125,5.578125,999200,5.9375,5.765625,4.344216823577881
03-02-1994,5.734375,5.8125,155200,5.8125,5.75,4.3324456214904785
04-02-1994,5.703125,5.78125,1171200,5.828125,5.71875,4.308899402618408
07-02-1994,5.609375,5.671875,363200,5.671875,5.625,4.2382612228393555
08-02-1994,5.59375,5.625,355200,5.75,5.734375,4.3206706047058105
09-02-1994,5.59375,5.734375,272800,5.734375,5.65625,4.261808395385742
10-02-1994,5.5,5.65625,944800,5.65625,5.5,4.144075870513916
11-02-1994,5.5,5.53125,212800,5.71875,5.6875,4.285351753234863
14-02-1994,5.40625,5.6875,335200,5.6875,5.5,4.144075870513916
15-02-1994,5.46875,5.46875,137600,5.53125,5.5,4.144075870513916
16-02-1994,5.375,5.46875,541600,5.484375,5.375,4.049892425537109
17-02-1994,5.34375,5.390625,538400,5.46875,5.34375,4.026349067687988
18-02-1994,5.328125,5.375,437600,5.390625,5.34375,4.026349067687988
22-02-1994,5.359375,5.375,83200,5.40625,5.375,4.049892425537109
23-02-1994,5.34375,5.34375,152000,5.4375,5.421875,4.085212707519531
24-02-1994,5.375,5.421875,108800,5.4375,5.4375,4.096985340118408
25-02-1994,5.46875,5.5,848800,5.5625,5.46875,4.1205339431762695
28-02-1994,5.375,5.46875,57600,5.46875,5.375,4.049892425537109
01-03-1994,5.34375,5.40625,180000,5.40625,5.375,4.049892425537109
02-03-1994,5.28125,5.34375,310400,5.34375,5.3125,4.00280237197876
03-03-1994,5.296875,5.328125,92800,5.34375,5.3125,4.00280237197876
04-03-1994,5.296875,5.296875,196800,5.40625,5.390625,4.061666011810303
07-03-1994,5.34375,5.40625,268800,5.40625,5.34375,4.026349067687988
08-03-1994,5.234375,5.3125,516800,5.328125,5.234375,3.943936347961426
09-03-1994,4.96875,5.203125,609600,5.203125,5.03125,3.7908880710601807
10-03-1994,4.921875,5.015625,894400,5.046875,4.9375,3.7202506065368652
11-03-1994,4.921875,4.953125,410400,5.03125,5.015625,3.7791173458099365
14-03-1994,5.015625,5.015625,308800,5.1875,5.171875,3.8968474864959717
15-03-1994,5.21875,5.21875,446400,5.328125,5.28125,3.9792556762695312
16-03-1994,5.25,5.265625,458400,5.296875,5.28125,3.9792556762695312
17-03-1994,5.265625,5.265625,423200,5.515625,5.484375,4.132305145263672
18-03-1994,5.5,5.53125,879200,5.6875,5.6875,4.285351753234863
21-03-1994,5.671875,5.71875,813600,5.734375,5.71875,4.308899402618408
22-03-1994,5.6875,5.6875,1078400,5.8125,5.796875,4.367762565612793
23-03-1994,5.625,5.6875,722400,5.6875,5.671875,4.27357816696167
24-03-1994,5.5625,5.59375,674400,5.65625,5.625,4.2382612228393555
25-03-1994,5.609375,5.609375,510400,5.671875,5.625,4.2382612228393555
28-03-1994,5.4375,5.609375,1590400,5.609375,5.4375,4.096985340118408
29-03-1994,5.25,5.421875,617600,5.421875,5.25,3.955712080001831
30-03-1994,5.109375,5.234375,567200,5.328125,5.3125,4.00280237197876
31-03-1994,5.265625,5.3125,148800,5.34375,5.34375,4.026349067687988
04-04-1994,5.25,5.3125,445600,5.3125,5.265625,3.9674839973449707
05-04-1994,5.234375,5.28125,940000,5.328125,5.25,3.955712080001831
06-04-1994,5.21875,5.3125,240000,5.375,5.375,4.049892425537109
07-04-1994,5.34375,5.375,574400,5.4375,5.34375,4.026349067687988
08-04-1994,5.3125,5.328125,169600,5.34375,5.34375,4.026349067687988
11-04-1994,5.265625,5.3125,698400,5.3125,5.296875,3.996638536453247
12-04-1994,5.3125,5.3125,1101600,5.40625,5.375,4.0555853843688965
13-04-1994,5.359375,5.375,604000,5.4375,5.4375,4.102741718292236
14-04-1994,5.359375,5.390625,1280800,5.53125,5.53125,4.1734819412231445
15-04-1994,5.46875,5.53125,826400,5.875,5.875,4.432849407196045
18-04-1994,5.6875,5.8125,1331200,5.8125,5.796875,4.373903751373291
19-04-1994,5.734375,5.78125,704000,5.8125,5.734375,4.326744079589844
20-04-1994,5.703125,5.71875,727200,5.71875,5.71875,4.3149542808532715
21-04-1994,5.703125,5.703125,480000,5.765625,5.75,4.338535308837891
22-04-1994,5.71875,5.734375,332000,5.796875,5.765625,4.350322723388672
25-04-1994,5.734375,5.765625,498400,5.9375,5.9375,4.480007171630859
26-04-1994,5.9375,5.9375,1096000,5.96875,5.96875,4.503584861755371
28-04-1994,5.9375,5.953125,856800,6.015625,5.953125,4.491796016693115
29-04-1994,5.890625,5.9375,535200,5.9375,5.9375,4.480007171630859
02-05-1994,5.890625,5.90625,652000,5.953125,5.953125,4.491796016693115
03-05-1994,5.859375,5.9375,560800,5.9375,5.875,4.432849407196045
04-05-1994,5.875,5.875,358400,5.9375,5.9375,4.480007171630859
05-05-1994,5.921875,5.96875,66400,5.96875,5.921875,4.468217849731445
06-05-1994,5.921875,5.921875,343200,6.125,6.09375,4.597901821136475
09-05-1994,6.03125,6.109375,453600,6.109375,6.078125,4.58611536026001
10-05-1994,6.09375,6.140625,632800,6.140625,6.09375,4.597901821136475
11-05-1994,6.03125,6.09375,187200,6.109375,6.03125,4.55074405670166
12-05-1994,6.03125,6.046875,806400,6.15625,6.140625,4.633269786834717
13-05-1994,6.109375,6.109375,257600,6.125,6.125,4.6214799880981445
16-05-1994,6.109375,6.140625,293600,6.140625,6.109375,4.609691619873047
17-05-1994,5.890625,6.09375,1044000,6.09375,5.953125,4.491796016693115
18-05-1994,5.90625,5.96875,1417600,5.984375,5.96875,4.503584861755371
19-05-1994,5.890625,5.984375,205600,5.984375,5.890625,4.444638729095459
20-05-1994,5.8125,5.90625,309600,5.90625,5.828125,4.397481441497803
23-05-1994,5.765625,5.796875,208800,5.8125,5.765625,4.350322723388672
24-05-1994,5.703125,5.75,287200,5.75,5.703125,4.303164482116699
25-05-1994,5.65625,5.71875,179200,5.71875,5.65625,4.26779842376709
26-05-1994,5.515625,5.59375,840800,5.625,5.546875,4.185268878936768
27-05-1994,5.53125,5.5625,70400,5.59375,5.578125,4.208846569061279
31-05-1994,5.5,5.546875,752800,5.578125,5.5,4.149901866912842
01-06-1994,5.5,5.5,480800,5.546875,5.515625,4.161691665649414
02-06-1994,5.46875,5.5,600000,5.53125,5.46875,4.1263251304626465
03-06-1994,5.34375,5.453125,136800,5.453125,5.421875,4.090954303741455
06-06-1994,5.453125,5.5,132800,5.5,5.46875,4.1263251304626465
07-06-1994,5.46875,5.46875,863200,5.578125,5.5625,4.19705867767334
08-06-1994,5.4375,5.5625,276800,5.5625,5.46875,4.1263251304626465
09-06-1994,5.375,5.4375,304800,5.4375,5.375,4.0555853843688965
10-06-1994,5.375,5.375,165600,5.578125,5.578125,4.208846569061279
13-06-1994,5.578125,5.578125,736800,5.703125,5.6875,4.291374683380127
14-06-1994,5.703125,5.703125,476000,5.75,5.75,4.338535308837891
15-06-1994,5.71875,5.75,292000,5.78125,5.734375,4.326744079589844
16-06-1994,5.71875,5.71875,132000,5.78125,5.78125,4.362113952636719
17-06-1994,5.75,5.75,384000,5.90625,5.90625,4.4564313888549805
20-06-1994,5.75,5.9375,174800,5.9375,5.84375,4.409271717071533
21-06-1994,5.78125,5.78125,166400,5.90625,5.90625,4.4564313888549805
22-06-1994,5.875,5.96875,52800,5.96875,5.90625,4.4564313888549805
23-06-1994,5.75,5.96875,197200,5.96875,5.75,4.338535308837891
24-06-1994,5.59375,5.75,143200,5.75,5.71875,4.3149542808532715
27-06-1994,5.625,5.6875,136800,5.75,5.71875,4.3149542808532715
28-06-1994,5.59375,5.65625,190800,5.71875,5.71875,4.3149542808532715
29-06-1994,5.65625,5.71875,94800,5.75,5.75,4.338535308837891
30-06-1994,5.59375,5.6875,440400,5.75,5.75,4.338535308837891
01-07-1994,5.625,5.75,150400,5.75,5.65625,4.26779842376709
05-07-1994,5.5,5.6875,72400,5.6875,5.5,4.149901866912842
06-07-1994,5.46875,5.5,182800,5.6875,5.6875,4.291374683380127
07-07-1994,5.59375,5.71875,36000,5.71875,5.59375,4.220639228820801
08-07-1994,5.5,5.5625,24000,5.59375,5.5,4.149901866912842
11-07-1994,5.5,5.53125,51600,5.5625,5.5625,4.2027907371521
12-07-1994,5.5,5.5625,98800,5.59375,5.5625,4.2027907371521
13-07-1994,5.40625,5.59375,277200,5.65625,5.5,4.1555681228637695
14-07-1994,5.4375,5.53125,72800,5.53125,5.4375,4.108345031738281
15-07-1994,5.34375,5.40625,68800,5.40625,5.375,4.061123371124268
18-07-1994,5.3125,5.4375,261600,5.46875,5.46875,4.131959438323975
19-07-1994,5.375,5.4375,143200,5.4375,5.375,4.061123371124268
20-07-1994,5.3125,5.40625,31600,5.40625,5.3125,4.013901710510254
21-07-1994,5.1875,5.1875,230800,5.34375,5.34375,4.037512302398682
22-07-1994,5.1875,5.3125,37600,5.3125,5.21875,3.9430673122406006
25-07-1994,5.03125,5.25,187200,5.25,5.03125,3.8013999462127686
26-07-1994,4.9375,5.0625,230000,5.0625,4.96875,3.7541773319244385
27-07-1994,4.90625,5.0,551200,5.03125,4.9375,3.7305665016174316
28-07-1994,4.9375,4.9375,342800,5.0,5.0,3.7777888774871826
29-07-1994,4.96875,5.0,209600,5.0,4.96875,3.7541773319244385
01-08-1994,4.9375,4.9375,620000,5.0,5.0,3.7777888774871826
02-08-1994,4.9375,4.96875,216400,5.0,5.0,3.7777888774871826
03-08-1994,4.90625,4.96875,430800,5.03125,5.0,3.7777888774871826
04-08-1994,4.9375,4.96875,156400,5.0625,5.0,3.7777888774871826
05-08-1994,4.78125,4.96875,233200,5.0,4.78125,3.6125102043151855
08-08-1994,4.8125,4.84375,731600,4.90625,4.84375,3.659733772277832
09-08-1994,4.78125,4.8125,1479200,5.0,5.0,3.7777888774871826
10-08-1994,5.03125,5.0625,600000,5.125,5.0625,3.8250131607055664
11-08-1994,4.96875,5.03125,326800,5.09375,4.96875,3.7541773319244385
12-08-1994,4.9375,4.96875,558400,5.03125,5.0,3.7777888774871826
15-08-1994,4.96875,5.0,71600,5.0625,4.96875,3.7541773319244385
16-08-1994,4.9375,5.0,300800,5.0,4.9375,3.7305665016174316
17-08-1994,4.90625,4.9375,148800,5.0,4.96875,3.7541773319244385
18-08-1994,4.90625,4.96875,228400,4.96875,4.9375,3.7305665016174316
19-08-1994,4.90625,4.9375,330400,4.953125,4.90625,3.706956148147583
22-08-1994,4.8125,4.9375,137200,4.9375,4.8125,3.6361210346221924
23-08-1994,4.78125,4.875,459200,4.90625,4.84375,3.659733772277832
24-08-1994,4.875,4.875,956000,5.03125,4.9375,3.7305665016174316
25-08-1994,4.75,4.96875,773200,4.96875,4.78125,3.6125102043151855
26-08-1994,4.65625,4.8125,1071600,4.875,4.8125,3.6361210346221924
29-08-1994,4.625,4.875,1677600,4.875,4.71875,3.565289258956909
30-08-1994,4.6875,4.71875,976800,4.8125,4.8125,3.6361210346221924
31-08-1994,4.75,4.8125,1103600,4.90625,4.8125,3.6361210346221924
01-09-1994,4.78125,4.78125,967600,4.875,4.84375,3.659733772277832
02-09-1994,4.84375,4.90625,250400,4.9375,4.9375,3.7305665016174316
06-09-1994,4.875,4.90625,397200,5.03125,5.03125,3.8013999462127686
07-09-1994,5.0625,5.0625,1347600,5.25,5.1875,3.9194605350494385
08-09-1994,5.125,5.125,1925200,5.4375,5.4375,4.108345031738281
09-09-1994,5.125,5.375,1384800,5.375,5.125,3.8722314834594727
12-09-1994,5.125,5.1875,572800,5.21875,5.125,3.8722314834594727
13-09-1994,5.125,5.15625,136400,5.1875,5.15625,3.8958468437194824
14-09-1994,5.125,5.125,378800,5.25,5.25,3.966679811477661
15-09-1994,5.21875,5.25,1040800,5.3125,5.25,3.966679811477661
16-09-1994,5.25,5.28125,429600,5.375,5.375,4.061123371124268
19-09-1994,5.25,5.375,374400,5.375,5.25,3.966679811477661
20-09-1994,5.0,5.1875,248400,5.1875,5.125,3.8722314834594727
21-09-1994,4.9375,5.125,303200,5.125,5.0,3.7777888774871826
22-09-1994,5.0,5.0625,68000,5.0625,5.0,3.7777888774871826
23-09-1994,5.0625,5.0625,456000,5.21875,5.1875,3.9194605350494385
26-09-1994,5.15625,5.15625,168800,5.25,5.25,3.966679811477661
27-09-1994,5.15625,5.21875,271200,5.21875,5.1875,3.9194605350494385
28-09-1994,5.15625,5.1875,45600,5.21875,5.15625,3.8958468437194824
29-09-1994,5.125,5.1875,135200,5.1875,5.15625,3.8958468437194824
30-09-1994,5.0625,5.1875,63600,5.1875,5.09375,3.8486227989196777
03-10-1994,5.0625,5.09375,100000,5.125,5.0625,3.8250131607055664
04-10-1994,4.96875,5.09375,256800,5.09375,4.96875,3.7541773319244385
05-10-1994,4.96875,4.96875,100400,5.03125,5.03125,3.8013999462127686
06-10-1994,5.03125,5.0625,187200,5.125,5.0625,3.8250131607055664
07-10-1994,5.09375,5.09375,220000,5.3125,5.28125,3.996208906173706
10-10-1994,5.28125,5.28125,344000,5.375,5.3125,4.019856929779053
11-10-1994,5.3125,5.3125,328800,5.375,5.3125,4.019856929779053
12-10-1994,5.15625,5.25,155600,5.25,5.15625,3.901625633239746
13-10-1994,5.1875,5.21875,285600,5.28125,5.25,3.972564935684204
14-10-1994,5.1875,5.25,151200,5.25,5.25,3.972564935684204
17-10-1994,5.25,5.3125,88000,5.3125,5.25,3.972564935684204
18-10-1994,5.25,5.25,153200,5.375,5.375,4.067147731781006
19-10-1994,5.34375,5.34375,236000,5.4375,5.34375,4.04350471496582
20-10-1994,5.21875,5.3125,174000,5.34375,5.25,3.972564935684204
21-10-1994,5.1875,5.1875,66800,5.25,5.21875,3.9489169120788574
24-10-1994,5.1875,5.25,72800,5.34375,5.3125,4.019856929779053
25-10-1994,5.1875,5.3125,243200,5.34375,5.25,3.972564935684204
26-10-1994,5.21875,5.25,512800,5.40625,5.40625,4.090795993804932
27-10-1994,5.375,5.375,1548800,5.625,5.53125,4.18538236618042
28-10-1994,5.46875,5.5,638000,5.6875,5.65625,4.279966831207275
31-10-1994,5.5,5.625,102000,5.625,5.53125,4.18538236618042
01-11-1994,5.46875,5.53125,71200,5.5625,5.5625,4.209027290344238
02-11-1994,5.4375,5.53125,349600,5.53125,5.46875,4.138087749481201
03-11-1994,5.46875,5.5,54000,5.5625,5.53125,4.18538236618042
04-11-1994,5.46875,5.46875,237600,5.53125,5.46875,4.138087749481201
07-11-1994,5.4375,5.5,145600,5.5,5.4375,4.114440441131592
08-11-1994,5.375,5.40625,126800,5.4375,5.40625,4.090795993804932
09-11-1994,5.4375,5.4375,328400,5.46875,5.4375,4.114440441131592
10-11-1994,5.4375,5.4375,60800,5.46875,5.4375,4.114440441131592
11-11-1994,5.34375,5.4375,80800,5.46875,5.34375,4.04350471496582
14-11-1994,5.21875,5.3125,125600,5.3125,5.25,3.972564935684204
15-11-1994,5.21875,5.25,166400,5.28125,5.28125,3.996208906173706
16-11-1994,5.15625,5.21875,154800,5.25,5.15625,3.901625633239746
17-11-1994,4.90625,5.09375,990400,5.09375,4.96875,3.759747266769409
18-11-1994,4.625,4.90625,1564800,4.90625,4.78125,3.6178696155548096
21-11-1994,4.71875,4.8125,789600,4.84375,4.75,3.5942258834838867
22-11-1994,4.625,4.6875,559600,4.71875,4.6875,3.546931505203247
23-11-1994,4.5,4.71875,952400,4.71875,4.59375,3.4759936332702637
25-11-1994,4.53125,4.5625,45600,4.59375,4.53125,3.428701639175415
28-11-1994,4.46875,4.59375,1295600,4.59375,4.53125,3.428701639175415
29-11-1994,4.46875,4.53125,1277200,4.625,4.59375,3.4759936332702637
30-11-1994,4.53125,4.625,410400,4.625,4.53125,3.428701639175415
01-12-1994,4.5,4.53125,507600,4.65625,4.625,3.499638319015503
02-12-1994,4.625,4.625,588000,4.6875,4.625,3.499638319015503
05-12-1994,4.375,4.59375,1013600,4.65625,4.375,3.310471296310425
06-12-1994,4.375,4.375,664400,4.4375,4.375,3.310471296310425
07-12-1994,4.34375,4.375,218400,4.5625,4.5625,3.4523489475250244
08-12-1994,4.53125,4.53125,552800,4.8125,4.6875,3.546931505203247
09-12-1994,4.5625,4.625,588400,4.625,4.59375,3.4759936332702637
12-12-1994,4.625,4.625,519200,4.6875,4.65625,3.5232841968536377
13-12-1994,4.65625,4.65625,408000,4.78125,4.75,3.5942258834838867
14-12-1994,4.78125,4.78125,529200,4.96875,4.9375,3.736100196838379
15-12-1994,4.8125,4.96875,116000,4.96875,4.84375,3.66516375541687
16-12-1994,4.8125,4.84375,312800,4.875,4.84375,3.66516375541687
19-12-1994,4.75,4.84375,426800,4.84375,4.8125,3.6415154933929443
20-12-1994,4.625,4.75,305200,4.8125,4.65625,3.5232841968536377
21-12-1994,4.59375,4.6875,634400,4.6875,4.625,3.499638319015503
22-12-1994,4.53125,4.65625,284000,4.65625,4.53125,3.428701639175415
23-12-1994,4.53125,4.5625,29600,4.59375,4.5625,3.4523489475250244
27-12-1994,4.4375,4.59375,209600,4.59375,4.5,3.405055284500122
28-12-1994,4.5,4.5,228800,4.59375,4.59375,3.4759936332702637
29-12-1994,4.65625,4.65625,221200,4.8125,4.71875,3.5705792903900146
30-12-1994,4.6875,4.71875,150400,4.78125,4.6875,3.546931505203247
03-01-1995,4.65625,4.75,129600,4.78125,4.75,3.5942258834838867
04-01-1995,4.6875,4.75,68400,4.8125,4.71875,3.5705792903900146
05-01-1995,4.59375,4.65625,260000,4.6875,4.65625,3.5232841968536377
06-01-1995,4.5,4.6875,404800,4.6875,4.5625,3.4523489475250244
09-01-1995,4.46875,4.53125,613600,4.5625,4.46875,3.386974573135376
10-01-1995,4.3125,4.4375,289600,4.4375,4.3125,3.268552303314209
11-01-1995,4.3125,4.3125,124800,4.40625,4.40625,3.3396074771881104
12-01-1995,4.3125,4.375,374400,4.4375,4.3125,3.268552303314209
13-01-1995,4.28125,4.3125,66800,4.40625,4.375,3.3159220218658447
16-01-1995,4.28125,4.3125,480800,4.328125,4.3125,3.268552303314209
17-01-1995,4.3125,4.3125,437600,4.4375,4.40625,3.3396074771881104
18-01-1995,4.40625,4.40625,606000,4.59375,4.5625,3.45803165435791
19-01-1995,4.5,4.5625,248000,4.5625,4.5,3.4106621742248535
20-01-1995,4.5,4.53125,76400,4.53125,4.53125,3.4343466758728027
23-01-1995,4.375,4.46875,128800,4.5,4.375,3.3159220218658447
24-01-1995,4.375,4.375,345600,4.5625,4.53125,3.4343466758728027
25-01-1995,4.46875,4.53125,129600,4.53125,4.5,3.4106621742248535
26-01-1995,4.5,4.5,145200,4.625,4.625,3.505402088165283
27-01-1995,4.5,4.5625,512000,4.59375,4.53125,3.4343466758728027
30-01-1995,4.4375,4.53125,193200,4.53125,4.46875,3.386974573135376
31-01-1995,4.4375,4.4375,186400,4.53125,4.4375,3.3632912635803223
01-02-1995,4.4375,4.4375,46000,4.5,4.46875,3.386974573135376
02-02-1995,4.4375,4.46875,41600,4.5,4.46875,3.386974573135376
03-02-1995,4.4375,4.5,243600,4.53125,4.5,3.4106621742248535
06-02-1995,4.5625,4.625,651200,4.8125,4.75,3.600144386291504
07-02-1995,4.6875,4.8125,437200,4.8125,4.6875,3.5527734756469727
08-02-1995,4.71875,4.71875,549600,4.8125,4.75,3.600144386291504
09-02-1995,4.6875,4.78125,278800,4.78125,4.6875,3.5527734756469727
10-02-1995,4.6875,4.71875,243600,4.78125,4.78125,3.623826503753662
13-02-1995,4.8125,4.8125,264800,4.90625,4.84375,3.6711978912353516
14-02-1995,4.75,4.84375,137600,4.84375,4.84375,3.6711978912353516
15-02-1995,4.8125,4.84375,277200,4.96875,4.9375,3.7422525882720947
16-02-1995,4.9375,4.9375,477600,5.03125,5.0,3.7896242141723633
17-02-1995,5.0,5.0,261200,5.125,5.125,3.8843626976013184
21-02-1995,5.09375,5.125,92400,5.125,5.125,3.8843626976013184
22-02-1995,5.0625,5.09375,214400,5.125,5.09375,3.8606786727905273
23-02-1995,5.0625,5.125,348800,5.15625,5.15625,3.908050060272217
24-02-1995,5.09375,5.15625,281200,5.15625,5.125,3.8843626976013184
27-02-1995,5.09375,5.125,381600,5.15625,5.15625,3.908050060272217
28-02-1995,5.15625,5.1875,322400,5.21875,5.21875,3.9554195404052734
01-03-1995,5.15625,5.1875,70800,5.1875,5.15625,3.908050060272217
02-03-1995,5.15625,5.15625,218800,5.25,5.25,3.9791061878204346
03-03-1995,5.21875,5.25,259600,5.28125,5.25,3.9791061878204346
06-03-1995,5.15625,5.25,236400,5.25,5.21875,3.9554195404052734
07-03-1995,5.125,5.25,405200,5.25,5.125,3.8843626976013184
08-03-1995,5.125,5.15625,442800,5.28125,5.21875,3.9554195404052734
09-03-1995,5.1875,5.25,179600,5.28125,5.28125,4.002789497375488
10-03-1995,5.15625,5.25,170400,5.25,5.15625,3.908050060272217
13-03-1995,5.15625,5.1875,100800,5.21875,5.1875,3.9317362308502197
14-03-1995,5.1875,5.1875,101600,5.25,5.25,3.9791061878204346
15-03-1995,5.25,5.25,317200,5.34375,5.3125,4.026474952697754
16-03-1995,5.28125,5.28125,635600,5.5,5.4375,4.121214866638184
17-03-1995,5.3125,5.40625,492800,5.5,5.4375,4.121214866638184
20-03-1995,5.28125,5.40625,426800,5.5,5.34375,4.050159454345703
21-03-1995,5.25,5.3125,159600,5.3125,5.25,3.9791061878204346
22-03-1995,5.28125,5.3125,349200,5.375,5.3125,4.026474952697754
23-03-1995,5.3125,5.34375,279600,5.4375,5.40625,4.097530364990234
24-03-1995,5.28125,5.40625,696000,5.40625,5.3125,4.026474952697754
27-03-1995,5.3125,5.34375,314400,5.5,5.5,4.168585777282715
28-03-1995,5.5,5.5,268800,5.5625,5.5625,4.215956687927246
29-03-1995,5.5625,5.5625,458000,5.6875,5.625,4.2633256912231445
30-03-1995,5.65625,5.65625,414400,5.875,5.875,4.452808380126953
31-03-1995,5.90625,5.90625,1336800,6.21875,6.15625,4.665974140167236
03-04-1995,5.96875,6.15625,1253600,6.15625,5.96875,4.523860454559326
04-04-1995,5.84375,5.96875,666000,5.96875,5.875,4.452808380126953
05-04-1995,5.84375,5.875,1044800,5.96875,5.90625,4.47649621963501
06-04-1995,5.71875,5.875,704000,5.875,5.71875,4.3343825340271
07-04-1995,5.625,5.6875,227600,5.75,5.625,4.268925189971924
10-04-1995,5.59375,5.59375,525600,5.75,5.75,4.363790988922119
11-04-1995,5.6875,5.78125,668400,5.78125,5.75,4.363790988922119
12-04-1995,5.71875,5.75,110400,5.78125,5.78125,4.387506484985352
13-04-1995,5.75,5.8125,191600,5.875,5.75,4.363790988922119
17-04-1995,5.75,5.78125,133200,5.8125,5.75,4.363790988922119
18-04-1995,5.5625,5.75,805200,5.75,5.5625,4.221493721008301
19-04-1995,5.53125,5.59375,182400,5.625,5.625,4.268925189971924
20-04-1995,5.625,5.625,356000,5.78125,5.78125,4.387506484985352
21-04-1995,5.8125,5.8125,1894000,6.1875,6.09375,4.624670028686523
24-04-1995,5.9375,6.125,940800,6.1875,5.9375,4.506087303161621
25-04-1995,5.84375,5.875,103200,5.90625,5.84375,4.434938430786133
26-04-1995,5.71875,5.875,144000,5.875,5.78125,4.387506484985352
27-04-1995,5.65625,5.78125,390800,5.78125,5.65625,4.2926435470581055
28-04-1995,5.6875,5.71875,266400,5.71875,5.71875,4.340074062347412
01-05-1995,5.71875,5.75,529200,5.78125,5.75,4.363790988922119
02-05-1995,5.6875,5.75,406400,5.75,5.75,4.363790988922119
03-05-1995,5.75,5.75,199600,5.8125,5.75,4.363790988922119
04-05-1995,5.6875,5.75,215200,5.75,5.71875,4.340074062347412
05-05-1995,5.65625,5.6875,289200,5.75,5.65625,4.2926435470581055
08-05-1995,5.625,5.65625,224000,5.6875,5.65625,4.2926435470581055
09-05-1995,5.625,5.65625,509200,5.8125,5.8125,4.411221981048584
10-05-1995,5.78125,5.78125,706400,5.9375,5.9375,4.506087303161621
11-05-1995,5.78125,5.90625,222000,5.90625,5.8125,4.411221981048584
12-05-1995,5.75,5.8125,38800,5.8125,5.78125,4.387506484985352
15-05-1995,5.78125,5.8125,279600,5.875,5.875,4.45865535736084
16-05-1995,5.84375,5.90625,43200,5.9375,5.84375,4.434938430786133
17-05-1995,5.78125,5.84375,295600,5.84375,5.8125,4.411221981048584
18-05-1995,5.65625,5.8125,107600,5.8125,5.71875,4.340074062347412
19-05-1995,5.71875,5.71875,130800,5.75,5.75,4.363790988922119
22-05-1995,5.6875,5.75,64000,5.75,5.6875,4.316359043121338
23-05-1995,5.71875,5.71875,340800,5.90625,5.875,4.45865535736084
24-05-1995,5.84375,5.875,449200,6.09375,6.09375,4.624670028686523
25-05-1995,6.0,6.03125,798400,6.125,6.0625,4.600954532623291
26-05-1995,5.9375,6.0625,177600,6.0625,5.96875,4.529801368713379
30-05-1995,5.9375,5.9375,303600,6.03125,6.03125,4.577237129211426
31-05-1995,6.0,6.0625,254800,6.0625,6.0625,4.600954532623291
01-06-1995,6.03125,6.0625,26000,6.09375,6.03125,4.577237129211426
02-06-1995,5.9375,6.0625,201600,6.09375,5.96875,4.529801368713379
05-06-1995,5.96875,6.0,137600,6.0,6.0,4.553520679473877
06-06-1995,5.875,6.0,53200,6.0,5.90625,4.48237419128418
07-06-1995,5.8125,5.9375,307600,5.9375,5.8125,4.411221981048584
08-06-1995,5.75,5.8125,242000,5.8125,5.78125,4.387506484985352
09-06-1995,5.75,5.78125,652000,5.8125,5.78125,4.387506484985352
12-06-1995,5.71875,5.78125,188000,5.78125,5.75,4.363790988922119
13-06-1995,5.6875,5.6875,119200,5.71875,5.71875,4.340074062347412
14-06-1995,5.71875,5.78125,300400,5.78125,5.78125,4.387506484985352
15-06-1995,5.71875,5.75,186800,5.8125,5.8125,4.411221981048584
16-06-1995,5.6875,5.8125,190000,5.8125,5.6875,4.316359043121338
19-06-1995,5.59375,5.65625,399600,5.71875,5.6875,4.316359043121338
20-06-1995,5.34375,5.71875,788000,5.71875,5.34375,4.055479049682617
21-06-1995,5.1875,5.34375,494400,5.34375,5.21875,3.9606146812438965
22-06-1995,5.0625,5.21875,762800,5.21875,5.15625,3.913184404373169
23-06-1995,5.1875,5.1875,2558400,5.34375,5.3125,4.031764507293701
26-06-1995,5.25,5.28125,352400,5.375,5.34375,4.055479049682617
27-06-1995,5.3125,5.3125,496800,5.4375,5.40625,4.10291051864624
28-06-1995,5.21875,5.375,1011200,5.375,5.25,3.984330654144287
29-06-1995,5.1875,5.25,250400,5.25,5.1875,3.9368996620178223
30-06-1995,5.21875,5.21875,653600,5.4375,5.4375,4.1266279220581055
03-07-1995,5.34375,5.40625,317600,5.46875,5.46875,4.150345802307129
05-07-1995,5.28125,5.4375,124000,5.4375,5.28125,4.008046627044678
06-07-1995,5.21875,5.25,680800,5.28125,5.25,3.984330654144287
07-07-1995,5.21875,5.25,272400,5.25,5.25,3.984330654144287
10-07-1995,5.125,5.28125,638400,5.3125,5.125,3.8894646167755127
11-07-1995,5.0,5.125,582000,5.28125,5.15625,3.913184404373169
12-07-1995,5.1875,5.1875,335600,5.28125,5.25,3.9901340007781982
13-07-1995,5.21875,5.375,817600,5.4375,5.21875,3.966384172439575
14-07-1995,5.15625,5.25,286000,5.28125,5.1875,3.942634344100952
17-07-1995,5.15625,5.1875,460400,5.25,5.21875,3.966384172439575
18-07-1995,5.21875,5.21875,77600,5.28125,5.28125,4.013885021209717
19-07-1995,5.1875,5.25,132000,5.28125,5.25,3.9901340007781982
20-07-1995,5.25,5.25,379200,5.375,5.28125,4.013885021209717
21-07-1995,5.21875,5.28125,248000,5.375,5.34375,4.061385631561279
24-07-1995,5.3125,5.3125,176400,5.40625,5.375,4.085137367248535
25-07-1995,5.40625,5.40625,344000,5.46875,5.4375,4.132639408111572
26-07-1995,5.34375,5.40625,244000,5.40625,5.34375,4.061385631561279
27-07-1995,5.21875,5.28125,758000,5.375,5.28125,4.013885021209717
28-07-1995,5.25,5.3125,111600,5.375,5.375,4.085137367248535
31-07-1995,5.34375,5.34375,217200,5.4375,5.40625,4.10888671875
01-08-1995,5.1875,5.375,532800,5.375,5.21875,3.966384172439575
02-08-1995,5.1875,5.21875,302000,5.25,5.21875,3.966384172439575
03-08-1995,5.125,5.1875,552400,5.34375,5.34375,4.061385631561279
04-08-1995,5.28125,5.34375,558800,5.34375,5.34375,4.061385631561279
07-08-1995,5.34375,5.375,101600,5.40625,5.375,4.085137367248535
08-08-1995,5.34375,5.40625,305200,5.4375,5.34375,4.061385631561279
09-08-1995,5.3125,5.40625,703200,5.40625,5.3125,4.037636756896973
10-08-1995,5.1875,5.3125,166000,5.34375,5.1875,3.942634344100952
11-08-1995,5.15625,5.15625,349600,5.3125,5.3125,4.037636756896973
14-08-1995,5.25,5.34375,134400,5.34375,5.25,3.9901340007781982
15-08-1995,5.25,5.3125,108800,5.34375,5.25,3.9901340007781982
16-08-1995,5.125,5.21875,242000,5.21875,5.21875,3.966384172439575
17-08-1995,5.1875,5.1875,371600,5.3125,5.28125,4.013885021209717
18-08-1995,5.28125,5.28125,542400,5.5,5.40625,4.10888671875
21-08-1995,5.40625,5.46875,575600,5.5,5.40625,4.10888671875
22-08-1995,5.4375,5.4375,362400,5.53125,5.53125,4.203893184661865
23-08-1995,5.5625,5.5625,317600,5.71875,5.625,4.275143146514893
24-08-1995,5.46875,5.59375,2007200,5.625,5.5,4.180140495300293
25-08-1995,5.5,5.5,160000,5.53125,5.5,4.180140495300293
28-08-1995,5.46875,5.5,280000,5.5625,5.53125,4.203893184661865
29-08-1995,5.5,5.53125,56400,5.5625,5.53125,4.203893184661865
30-08-1995,5.625,5.625,290400,5.65625,5.65625,4.298896789550781
31-08-1995,5.6875,5.6875,116800,5.84375,5.8125,4.417647361755371
01-09-1995,5.84375,5.84375,431200,5.96875,5.96875,4.536400318145752
05-09-1995,5.90625,5.96875,545200,6.03125,6.03125,4.583905220031738
06-09-1995,5.90625,5.96875,415600,6.0,6.0,4.560153007507324
07-09-1995,5.78125,6.0,284000,6.03125,6.03125,4.583905220031738
08-09-1995,5.9375,6.03125,248000,6.09375,5.9375,4.512650966644287
11-09-1995,5.9375,5.96875,230800,6.03125,6.03125,4.583905220031738
12-09-1995,5.90625,6.0,312400,6.15625,6.15625,4.678905487060547
13-09-1995,6.03125,6.125,547600,6.125,6.0625,4.607656478881836
14-09-1995,5.9375,6.03125,348000,6.09375,6.09375,4.631406307220459
15-09-1995,6.0625,6.0625,221200,6.1875,6.1875,4.702657699584961
18-09-1995,6.125,6.15625,490000,6.34375,6.21875,4.726408004760742
19-09-1995,6.0,6.15625,504800,6.1875,6.15625,4.678905487060547
20-09-1995,6.0,6.125,284800,6.125,6.0,4.560153007507324
21-09-1995,5.9375,6.0625,451200,6.0625,6.03125,4.583905220031738
22-09-1995,5.78125,6.03125,143600,6.03125,5.875,4.465150356292725
25-09-1995,5.75,5.84375,183200,5.84375,5.78125,4.393897533416748
26-09-1995,5.65625,5.78125,232000,5.78125,5.65625,4.298896789550781
27-09-1995,5.625,5.6875,229200,5.75,5.75,4.370147228240967
28-09-1995,5.625,5.8125,263600,5.96875,5.625,4.275143146514893
29-09-1995,5.4375,5.59375,635600,5.59375,5.4375,4.132639408111572
02-10-1995,5.4375,5.46875,548400,5.6875,5.59375,4.2513957023620605
03-10-1995,5.5625,5.5625,304400,5.6875,5.65625,4.298896789550781
04-10-1995,5.5625,5.625,230800,5.65625,5.65625,4.298896789550781
05-10-1995,5.5,5.625,76800,5.625,5.53125,4.203893184661865
06-10-1995,5.5,5.5,259200,5.5625,5.5625,4.227643013000488
09-10-1995,5.5,5.59375,48000,5.59375,5.5,4.180140495300293
10-10-1995,5.375,5.46875,109600,5.46875,5.375,4.085137367248535
11-10-1995,5.34375,5.375,166000,5.40625,5.34375,4.061385631561279
12-10-1995,5.34375,5.375,620000,5.5625,5.5,4.18601655960083
13-10-1995,5.5,5.5,227200,5.59375,5.53125,4.20980167388916
16-10-1995,5.40625,5.53125,188800,5.53125,5.46875,4.162233352661133
17-10-1995,5.40625,5.4375,398400,5.5,5.5,4.18601655960083
18-10-1995,5.25,5.4375,1966400,5.46875,5.25,3.995741605758667
19-10-1995,5.21875,5.21875,1503600,5.3125,5.21875,3.971958875656128
20-10-1995,5.125,5.25,333600,5.25,5.125,3.900604724884033
23-10-1995,5.0,5.15625,608000,5.15625,5.0,3.8054678440093994
24-10-1995,4.90625,5.0,1186800,5.0,4.9375,3.757899522781372
25-10-1995,4.71875,4.9375,658400,4.9375,4.71875,3.591412305831909
26-10-1995,4.6875,4.75,439600,4.8125,4.71875,3.591412305831909
27-10-1995,4.71875,4.71875,352000,4.875,4.875,3.7103335857391357
30-10-1995,4.9375,4.9375,646800,5.0,4.96875,3.781684160232544
31-10-1995,4.96875,5.0,314800,5.03125,5.0,3.8054678440093994
01-11-1995,5.0,5.0,390800,5.03125,5.0,3.8054678440093994
02-11-1995,4.9375,4.96875,42800,5.0,4.9375,3.757899522781372
03-11-1995,4.875,4.875,165600,4.96875,4.96875,3.781684160232544
06-11-1995,4.90625,4.96875,63600,4.96875,4.90625,3.7341177463531494
07-11-1995,4.9375,4.9375,476400,5.03125,5.03125,3.8292527198791504
08-11-1995,4.875,4.96875,907200,5.0,5.0,3.8054678440093994
09-11-1995,5.03125,5.09375,1176400,5.15625,5.03125,3.8292527198791504
10-11-1995,4.90625,5.03125,550000,5.03125,4.90625,3.7341177463531494
13-11-1995,4.9375,4.96875,446800,5.09375,5.09375,3.8768224716186523
14-11-1995,4.9375,5.03125,1045600,5.0625,4.96875,3.781684160232544
15-11-1995,4.96875,4.96875,228000,5.03125,5.0,3.8054678440093994
16-11-1995,5.03125,5.03125,1046400,5.4375,5.375,4.090877532958984
17-11-1995,5.375,5.40625,906800,5.40625,5.40625,4.114661693572998
20-11-1995,5.1875,5.40625,585600,5.40625,5.1875,3.948176383972168
21-11-1995,5.1875,5.21875,363200,5.375,5.34375,4.067093849182129
22-11-1995,5.34375,5.375,432800,5.40625,5.40625,4.114661693572998
24-11-1995,5.3125,5.40625,229200,5.40625,5.3125,4.0433125495910645
27-11-1995,5.125,5.21875,851200,5.21875,5.1875,3.948176383972168
28-11-1995,5.1875,5.1875,315200,5.28125,5.25,3.995741605758667
29-11-1995,5.21875,5.28125,28800,5.28125,5.21875,3.971958875656128
30-11-1995,5.1875,5.28125,311200,5.28125,5.25,3.995741605758667
01-12-1995,5.25,5.25,308400,5.34375,5.28125,4.019525051116943
04-12-1995,5.125,5.3125,1056000,5.3125,5.3125,4.0433125495910645
05-12-1995,5.3125,5.3125,461200,5.375,5.375,4.090877532958984
06-12-1995,5.40625,5.40625,685200,5.4375,5.4375,4.138447284698486
07-12-1995,5.4375,5.4375,720400,5.5,5.5,4.18601655960083
08-12-1995,5.4375,5.46875,18838800,5.65625,5.65625,4.304938316345215
11-12-1995,5.71875,5.8125,5631200,5.875,5.875,4.471424579620361
12-12-1995,5.8125,5.875,2874000,5.90625,5.875,4.471424579620361
13-12-1995,5.84375,5.875,3176800,6.09375,6.0,4.566562175750732
14-12-1995,5.90625,6.03125,2280000,6.09375,5.90625,4.495211124420166
15-12-1995,5.875,6.1875,1721200,6.21875,6.0,4.566562175750732
18-12-1995,5.8125,5.9375,974000,5.96875,5.96875,4.542776107788086
19-12-1995,5.875,5.96875,876000,6.0625,6.0625,4.614132881164551
20-12-1995,6.03125,6.0625,2001200,6.21875,6.03125,4.5903472900390625
21-12-1995,6.0,6.03125,1896800,6.125,6.03125,4.5903472900390625
22-12-1995,5.9375,6.09375,1115600,6.15625,6.03125,4.5903472900390625
26-12-1995,6.03125,6.09375,490800,6.09375,6.03125,4.5903472900390625
27-12-1995,5.9375,6.03125,582000,6.03125,5.9375,4.518992900848389
28-12-1995,5.90625,5.90625,1150800,6.15625,6.15625,4.685481548309326
29-12-1995,5.9375,6.1875,677200,6.1875,6.0,4.566562175750732
02-01-1996,6.03125,6.0625,579600,6.125,6.09375,4.637915134429932
03-01-1996,5.875,6.125,1148000,6.125,5.96875,4.542776107788086
04-01-1996,5.9375,5.96875,1644000,6.0625,5.96875,4.542776107788086
05-01-1996,5.9375,5.9375,680800,6.09375,6.0625,4.614132881164551
08-01-1996,6.0625,6.0625,779200,6.125,6.125,4.661698818206787
09-01-1996,5.9375,6.15625,948400,6.15625,6.0,4.566562175750732
10-01-1996,5.84375,6.0,516400,6.03125,5.96875,4.542776107788086
11-01-1996,5.6875,5.8125,1618400,5.8125,5.78125,4.405611515045166
12-01-1996,5.75,5.75,555200,5.8125,5.8125,4.4294233322143555
15-01-1996,5.75,5.875,1159200,5.875,5.75,4.381793975830078
16-01-1996,5.71875,5.75,1683200,5.8125,5.75,4.381793975830078
17-01-1996,5.59375,5.75,2281600,5.78125,5.75,4.381793975830078
18-01-1996,5.71875,5.75,504000,5.78125,5.78125,4.405611515045166
19-01-1996,5.75,5.8125,803200,5.84375,5.75,4.381793975830078
22-01-1996,5.78125,5.78125,545600,5.875,5.875,4.477051734924316
23-01-1996,5.78125,5.84375,426400,5.90625,5.78125,4.405611515045166
24-01-1996,5.78125,5.8125,539600,5.96875,5.875,4.477051734924316
25-01-1996,5.875,5.875,693600,5.96875,5.9375,4.524677753448486
26-01-1996,5.875,5.90625,1880000,5.90625,5.875,4.477051734924316
29-01-1996,5.875,5.90625,1636800,6.0,6.0,4.572308540344238
30-01-1996,5.96875,6.0,970800,6.03125,6.03125,4.596124172210693
31-01-1996,5.96875,6.03125,650000,6.125,6.09375,4.643749713897705
01-02-1996,6.125,6.125,2182400,6.3125,6.21875,4.739002704620361
02-02-1996,6.125,6.15625,1204000,6.25,6.15625,4.69137716293335
05-02-1996,6.0625,6.09375,923200,6.15625,6.09375,4.643749713897705
06-02-1996,6.03125,6.09375,938400,6.125,6.03125,4.596124172210693
07-02-1996,6.0625,6.09375,838800,6.15625,6.125,4.667562007904053
08-02-1996,6.125,6.125,705600,6.25,6.1875,4.71519136428833
09-02-1996,6.125,6.1875,1770400,6.28125,6.25,4.762821674346924
12-02-1996,6.15625,6.25,4923200,6.65625,6.53125,4.977147579193115
13-02-1996,6.25,6.59375,3442800,6.59375,6.34375,4.834262371063232
14-02-1996,6.375,6.375,1570000,6.625,6.5625,5.0009613037109375
15-02-1996,6.53125,6.53125,1637600,6.9375,6.90625,5.262916088104248
16-02-1996,6.65625,7.125,2182000,7.125,6.75,5.14384651184082
20-02-1996,6.5625,6.625,421200,6.71875,6.625,5.048589706420898
21-02-1996,6.53125,6.5625,1553600,6.71875,6.71875,5.120034694671631
22-02-1996,6.59375,6.6875,1300800,6.75,6.6875,5.096218109130859
23-02-1996,6.5625,6.65625,660000,6.75,6.71875,5.120034694671631
26-02-1996,6.5625,6.625,556400,6.65625,6.59375,5.024775505065918
27-02-1996,6.5,6.53125,532800,6.625,6.59375,5.024775505065918
28-02-1996,6.40625,6.59375,2225600,6.71875,6.40625,4.881891250610352
29-02-1996,6.1875,6.4375,956000,6.4375,6.25,4.762821674346924
01-03-1996,6.25,6.25,402800,6.34375,6.25,4.762821674346924
04-03-1996,6.1875,6.25,809200,6.34375,6.3125,4.810450077056885
05-03-1996,6.15625,6.25,574000,6.25,6.25,4.762821674346924
06-03-1996,6.1875,6.21875,830000,6.40625,6.40625,4.881891250610352
07-03-1996,6.3125,6.375,1132000,6.40625,6.375,4.858076572418213
08-03-1996,6.1875,6.1875,278400,6.28125,6.21875,4.739002704620361
11-03-1996,6.09375,6.1875,1366400,6.1875,6.15625,4.69137716293335
12-03-1996,6.09375,6.125,1108400,6.15625,6.125,4.667562007904053
13-03-1996,6.125,6.125,1038800,6.1875,6.1875,4.71519136428833
14-03-1996,6.25,6.25,2724800,6.40625,6.3125,4.810450077056885
15-03-1996,6.0,6.25,1051600,6.25,6.0625,4.619935989379883
18-03-1996,6.0625,6.09375,4547200,6.375,6.375,4.858076572418213
19-03-1996,6.34375,6.375,473600,6.4375,6.34375,4.834262371063232
20-03-1996,6.1875,6.375,223600,6.375,6.1875,4.71519136428833
21-03-1996,6.125,6.1875,936800,6.28125,6.125,4.667562007904053
22-03-1996,6.09375,6.15625,1019600,6.1875,6.09375,4.643749713897705
25-03-1996,6.0625,6.0625,907200,6.28125,6.28125,4.786632537841797
26-03-1996,6.25,6.28125,216800,6.3125,6.3125,4.810450077056885
27-03-1996,6.40625,6.5,1842000,6.59375,6.53125,4.977147579193115
28-03-1996,6.53125,6.53125,1270000,6.65625,6.65625,5.072402477264404
29-03-1996,6.5625,6.59375,1343600,6.625,6.59375,5.024775505065918
01-04-1996,6.5625,6.59375,752800,6.6875,6.6875,5.096218109130859
02-04-1996,6.65625,6.71875,1116400,6.875,6.84375,5.2152886390686035
03-04-1996,6.71875,6.78125,1519600,6.96875,6.9375,5.28672981262207
04-04-1996,6.75,6.9375,796800,6.9375,6.875,5.239101409912109
08-04-1996,6.625,6.84375,1262800,6.84375,6.8125,5.191474437713623
09-04-1996,6.8125,6.8125,923200,6.90625,6.875,5.239101409912109
10-04-1996,6.78125,6.8125,1358000,6.96875,6.9375,5.28672981262207
11-04-1996,6.84375,6.875,932000,6.9375,6.875,5.2447710037231445
12-04-1996,6.59375,6.875,1120000,6.875,6.65625,5.077894687652588
15-04-1996,6.5625,6.59375,948000,6.78125,6.75,5.149413108825684
16-04-1996,6.6875,6.78125,846000,6.78125,6.75,5.149413108825684
17-04-1996,6.65625,6.75,1494800,6.75,6.6875,5.1017327308654785
18-04-1996,6.5,6.6875,1113200,6.6875,6.53125,4.982534885406494
19-04-1996,6.5,6.5,884400,6.6875,6.65625,5.077894687652588
22-04-1996,6.65625,6.65625,2457600,6.90625,6.8125,5.197093486785889
23-04-1996,6.78125,6.9375,1053200,7.0,6.90625,5.268611431121826
24-04-1996,6.90625,6.90625,1069200,7.15625,7.03125,5.3639726638793945
25-04-1996,6.9375,6.96875,536800,7.0,6.9375,5.292455196380615
26-04-1996,6.78125,6.875,486400,6.9375,6.78125,5.173254489898682
29-04-1996,6.71875,6.71875,705200,6.875,6.78125,5.173254489898682
30-04-1996,6.59375,6.8125,779600,6.875,6.625,5.054053783416748
01-05-1996,6.5,6.625,808400,6.75,6.5,4.9586920738220215
02-05-1996,6.46875,6.5625,373600,6.59375,6.5625,5.006374835968018
03-05-1996,6.53125,6.625,680000,6.625,6.625,5.054053783416748
06-05-1996,6.5625,6.59375,504400,6.65625,6.5625,5.006374835968018
07-05-1996,6.125,6.625,1395600,6.65625,6.21875,4.744134902954102
08-05-1996,6.1875,6.25,620400,6.34375,6.25,4.767975807189941
09-05-1996,6.25,6.25,332000,6.375,6.375,4.863334655761719
10-05-1996,6.25,6.375,818400,6.40625,6.3125,4.81565523147583
13-05-1996,6.21875,6.25,796000,6.3125,6.25,4.767975807189941
14-05-1996,6.15625,6.25,1208800,6.28125,6.15625,4.696455955505371
15-05-1996,6.09375,6.1875,2372400,6.3125,6.3125,4.81565523147583
16-05-1996,6.25,6.34375,379600,6.34375,6.28125,4.79181432723999
17-05-1996,6.1875,6.25,1017600,6.28125,6.25,4.767975807189941
20-05-1996,6.25,6.25,425600,6.375,6.34375,4.839496612548828
21-05-1996,6.3125,6.3125,2660400,6.46875,6.4375,4.911012172698975
22-05-1996,6.4375,6.4375,552000,6.5,6.5,4.9586920738220215
23-05-1996,6.53125,6.5625,1154800,6.75,6.5625,5.006374835968018
24-05-1996,6.4375,6.5,1701200,6.53125,6.5,4.9586920738220215
28-05-1996,6.359375,6.53125,554000,6.53125,6.4375,4.911012172698975
29-05-1996,6.3125,6.40625,613600,6.40625,6.375,4.863334655761719
30-05-1996,6.25,6.375,604000,6.375,6.3125,4.81565523147583
31-05-1996,6.25,6.34375,493200,6.375,6.3125,4.81565523147583
03-06-1996,6.28125,6.3125,211200,6.3125,6.3125,4.81565523147583
04-06-1996,6.375,6.40625,654800,6.46875,6.375,4.863334655761719
05-06-1996,6.40625,6.4375,679600,6.46875,6.4375,4.911012172698975
06-06-1996,6.25,6.4375,278800,6.4375,6.28125,4.79181432723999
07-06-1996,6.15625,6.21875,702800,6.34375,6.34375,4.839496612548828
10-06-1996,6.3125,6.34375,241200,6.34375,6.3125,4.81565523147583
11-06-1996,6.28125,6.3125,761600,6.375,6.3125,4.81565523147583
12-06-1996,6.25,6.3125,1385200,6.3125,6.28125,4.79181432723999
13-06-1996,6.09375,6.28125,985600,6.28125,6.1875,4.720296382904053
14-06-1996,6.15625,6.1875,1093200,6.21875,6.15625,4.696455955505371
17-06-1996,6.0625,6.09375,586400,6.125,6.0625,4.624937057495117
18-06-1996,5.96875,6.0,1450000,6.125,5.96875,4.5534162521362305
19-06-1996,6.03125,6.03125,1416800,6.15625,6.0625,4.624937057495117
20-06-1996,6.0625,6.09375,1258400,6.125,6.09375,4.648776531219482
21-06-1996,6.0,6.09375,650800,6.09375,6.0,4.577256679534912
24-06-1996,5.96875,6.03125,948000,6.0625,6.0,4.577256679534912
25-06-1996,5.96875,6.03125,2754000,6.25,6.15625,4.696455955505371
26-06-1996,6.21875,6.21875,5256400,6.625,6.625,5.054053783416748
27-06-1996,6.53125,6.59375,4884000,6.75,6.75,5.149413108825684
28-06-1996,6.78125,6.8125,5409200,6.96875,6.96875,5.316293239593506
01-07-1996,6.90625,6.96875,3778800,7.28125,7.28125,5.554691791534424
02-07-1996,7.125,7.15625,2342000,7.25,7.21875,5.507015705108643
03-07-1996,7.125,7.125,1392000,7.21875,7.21875,5.507015705108643
05-07-1996,7.125,7.21875,753600,7.3125,7.28125,5.554691791534424
08-07-1996,7.1875,7.25,924800,7.3125,7.25,5.530851364135742
09-07-1996,7.25,7.25,2440800,7.5625,7.5,5.721569538116455
10-07-1996,7.46875,7.5,3225600,7.65625,7.5625,5.76924991607666
11-07-1996,7.125,7.46875,3954400,7.59375,7.1875,5.488614082336426
12-07-1996,7.125,7.15625,1191200,7.21875,7.15625,5.464750289916992
15-07-1996,7.09375,7.125,1718400,7.34375,7.125,5.440887451171875
16-07-1996,6.5625,7.0625,1854400,7.09375,6.65625,5.082934856414795
17-07-1996,6.6875,6.6875,2270000,6.96875,6.6875,5.106797695159912
18-07-1996,6.65625,6.75,990400,6.8125,6.71875,5.130664825439453
19-07-1996,6.65625,6.6875,1322800,6.71875,6.6875,5.106797695159912
22-07-1996,6.5625,6.6875,1101600,6.6875,6.59375,5.035208225250244
23-07-1996,6.53125,6.625,2303200,6.8125,6.8125,5.202254772186279
24-07-1996,6.625,6.75,327600,6.75,6.625,5.059071063995361
25-07-1996,6.375,6.625,762800,6.78125,6.375,4.868162631988525
26-07-1996,6.40625,6.40625,462800,6.5625,6.53125,4.987482070922852
29-07-1996,6.4375,6.5,676800,6.53125,6.5,4.963615417480469
30-07-1996,6.25,6.46875,1988800,6.53125,6.3125,4.820434093475342
31-07-1996,6.125,6.3125,1733600,6.3125,6.25,4.772710800170898
01-08-1996,6.25,6.25,1422800,6.375,6.3125,4.820434093475342
02-08-1996,6.3125,6.3125,1042800,6.46875,6.46875,4.939753532409668
05-08-1996,6.34375,6.46875,503200,6.59375,6.59375,5.035208225250244
06-08-1996,6.5,6.59375,495200,6.65625,6.65625,5.082934856414795
07-08-1996,6.75,6.75,1542800,6.84375,6.84375,5.226113796234131
08-08-1996,6.75,6.84375,767600,6.875,6.84375,5.226113796234131
09-08-1996,6.71875,6.875,634400,6.875,6.71875,5.130664825439453
12-08-1996,6.625,6.75,167600,6.75,6.625,5.059071063995361
13-08-1996,6.625,6.65625,389600,6.6875,6.625,5.059071063995361
14-08-1996,6.625,6.625,333200,6.65625,6.65625,5.082934856414795
15-08-1996,6.625,6.625,331600,6.75,6.75,5.154525279998779
16-08-1996,6.625,6.6875,329600,6.71875,6.71875,5.130664825439453
19-08-1996,6.625,6.65625,339200,6.78125,6.78125,5.1783928871154785
20-08-1996,6.6875,6.8125,928800,6.8125,6.75,5.154525279998779
21-08-1996,6.59375,6.71875,837600,6.71875,6.65625,5.082934856414795
22-08-1996,6.59375,6.65625,433200,6.6875,6.65625,5.082934856414795
23-08-1996,6.5625,6.59375,228800,6.65625,6.625,5.059071063995361
26-08-1996,6.5625,6.625,488000,6.65625,6.65625,5.082934856414795
27-08-1996,6.5,6.625,669600,6.625,6.5,4.963615417480469
28-08-1996,6.46875,6.5,392800,6.5,6.46875,4.939753532409668
29-08-1996,6.4375,6.46875,499200,6.5,6.46875,4.939753532409668
30-08-1996,6.375,6.4375,160800,6.46875,6.46875,4.939753532409668
03-09-1996,6.5,6.5,1298800,6.59375,6.5625,5.011344909667969
04-09-1996,6.40625,6.53125,356400,6.53125,6.46875,4.939753532409668
05-09-1996,6.375,6.4375,382800,6.5,6.4375,4.915888786315918
06-09-1996,6.3125,6.4375,2431600,6.59375,6.46875,4.939753532409668
09-09-1996,6.40625,6.46875,501200,6.53125,6.5,4.963615417480469
10-09-1996,6.46875,6.5,488400,6.53125,6.46875,4.939753532409668
11-09-1996,6.46875,6.46875,1305600,6.65625,6.5625,5.011344909667969
12-09-1996,6.28125,6.53125,1240800,6.53125,6.3125,4.820434093475342
13-09-1996,6.125,6.3125,1250400,6.3125,6.125,4.677253246307373
16-09-1996,6.03125,6.125,1839600,6.125,6.0625,4.629528045654297
17-09-1996,5.71875,5.875,3505600,5.9375,5.875,4.486346244812012
18-09-1996,5.875,5.90625,2286800,6.09375,6.0,4.581800937652588
19-09-1996,5.96875,5.96875,2160800,6.09375,6.03125,4.605666160583496
20-09-1996,6.03125,6.03125,601200,6.09375,6.03125,4.605666160583496
23-09-1996,6.0,6.0625,1021600,6.0625,6.03125,4.605666160583496
24-09-1996,5.84375,6.0,1552000,6.0625,5.90625,4.510209560394287
25-09-1996,5.78125,5.90625,1691200,6.0,6.0,4.581800937652588
26-09-1996,6.03125,6.03125,856400,6.15625,6.125,4.677253246307373
27-09-1996,6.0,6.0625,1036000,6.09375,6.03125,4.605666160583496
30-09-1996,6.0,6.0,1134400,6.21875,6.21875,4.748844623565674
01-10-1996,6.25,6.25,956400,6.3125,6.3125,4.820434093475342
02-10-1996,6.28125,6.3125,774800,6.40625,6.375,4.868162631988525
03-10-1996,6.28125,6.375,691600,6.375,6.28125,4.796572208404541
04-10-1996,6.28125,6.34375,592000,6.40625,6.28125,4.796572208404541
07-10-1996,6.25,6.28125,1552000,6.4375,6.40625,4.892027378082275
08-10-1996,6.34375,6.40625,1220000,6.46875,6.375,4.868162631988525
09-10-1996,6.25,6.375,772800,6.375,6.3125,4.820434093475342
10-10-1996,5.9375,6.21875,2254800,6.21875,6.0,4.58725118637085
11-10-1996,5.9375,6.0,1258800,6.0625,5.9375,4.539466381072998
14-10-1996,5.8125,5.9375,2306000,5.96875,5.84375,4.467792987823486
15-10-1996,5.84375,5.875,1424800,6.0,6.0,4.58725118637085
16-10-1996,5.96875,6.0,1880000,6.09375,6.09375,4.658926486968994
17-10-1996,6.125,6.15625,1636400,6.25,6.25,4.778384208679199
18-10-1996,6.21875,6.25,1060800,6.40625,6.375,4.873951435089111
21-10-1996,6.25,6.34375,722000,6.375,6.25,4.778384208679199
22-10-1996,6.15625,6.25,1494400,6.3125,6.1875,4.730601787567139
23-10-1996,5.96875,6.15625,2842800,6.15625,6.0,4.58725118637085
24-10-1996,6.0,6.03125,1593200,6.09375,6.0625,4.635035514831543
25-10-1996,6.09375,6.09375,1020000,6.21875,6.21875,4.754492282867432
28-10-1996,6.09375,6.15625,995600,6.1875,6.09375,4.658926486968994
29-10-1996,6.03125,6.09375,1533600,6.15625,6.15625,4.706710338592529
30-10-1996,6.15625,6.15625,3300400,6.375,6.375,4.873951435089111
31-10-1996,6.375,6.375,1713200,6.53125,6.4375,4.9217376708984375
01-11-1996,6.25,6.4375,1226800,6.46875,6.28125,4.802278518676758
04-11-1996,6.1875,6.25,1135200,6.28125,6.1875,4.730601787567139
05-11-1996,6.1875,6.25,730800,6.25,6.21875,4.754492282867432
06-11-1996,6.125,6.21875,395600,6.21875,6.125,4.682818412780762
07-11-1996,6.0,6.0,1647200,6.0625,6.0,4.58725118637085
08-11-1996,6.0,6.0625,1212400,6.15625,6.15625,4.706710338592529
11-11-1996,6.15625,6.1875,1075600,6.28125,6.25,4.778384208679199
12-11-1996,6.25,6.3125,1186400,6.375,6.25,4.778384208679199
13-11-1996,6.25,6.28125,1387200,6.28125,6.28125,4.802278518676758
14-11-1996,6.28125,6.28125,2227200,6.3125,6.3125,4.826169490814209
15-11-1996,6.21875,6.28125,1321600,6.34375,6.25,4.778384208679199
18-11-1996,6.1875,6.25,682000,6.25,6.25,4.778384208679199
19-11-1996,6.21875,6.25,2281600,6.40625,6.40625,4.8978447914123535
20-11-1996,6.5625,6.75,3805200,6.78125,6.78125,5.184547424316406
